r (km)        	 u (km/s)    	 cs (km/s)   	 rho (g/cm3) 	 T (K)       	 P (dyne/cm2) 	 phi         	 L (erg/s)   	 L* (erg/s)  	 E (erg)     	 tau        
1.20015139e+01 	 6.328150e-06 	 2.443054e+03 	 1.079923e+05 	 1.394076e+09 	 1.601354e+22 	 3.889443e+08 	 8.148750e+38 	 5.325842e+38 	 3.872394e+22 	 7.209567e+09
1.20016032e+01 	 6.401061e-06 	 2.439858e+03 	 1.067604e+05 	 1.390431e+09 	 1.582313e+22 	 3.839850e+08 	 8.148697e+38 	 5.325829e+38 	 3.828064e+22 	 7.138653e+09
1.20016924e+01 	 6.474812e-06 	 2.436667e+03 	 1.055426e+05 	 1.386797e+09 	 1.563509e+22 	 3.790893e+08 	 8.148644e+38 	 5.325815e+38 	 3.784272e+22 	 7.068424e+09
1.20017815e+01 	 6.549413e-06 	 2.433483e+03 	 1.043386e+05 	 1.383175e+09 	 1.544940e+22 	 3.742565e+08 	 8.148591e+38 	 5.325801e+38 	 3.741011e+22 	 6.998874e+09
1.20018705e+01 	 6.624873e-06 	 2.430304e+03 	 1.031484e+05 	 1.379564e+09 	 1.526603e+22 	 3.694858e+08 	 8.148538e+38 	 5.325788e+38 	 3.698276e+22 	 6.929997e+09
1.20019594e+01 	 6.701204e-06 	 2.427132e+03 	 1.019718e+05 	 1.375964e+09 	 1.508495e+22 	 3.647764e+08 	 8.148485e+38 	 5.325774e+38 	 3.656058e+22 	 6.861786e+09
1.20020482e+01 	 6.778413e-06 	 2.423965e+03 	 1.008086e+05 	 1.372376e+09 	 1.490613e+22 	 3.601274e+08 	 8.148432e+38 	 5.325760e+38 	 3.614351e+22 	 6.794235e+09
1.20021370e+01 	 6.856513e-06 	 2.420804e+03 	 9.965866e+04 	 1.368799e+09 	 1.472953e+22 	 3.555380e+08 	 8.148379e+38 	 5.325747e+38 	 3.573150e+22 	 6.727337e+09
1.20022256e+01 	 6.935512e-06 	 2.417648e+03 	 9.852185e+04 	 1.365233e+09 	 1.455513e+22 	 3.510076e+08 	 8.148326e+38 	 5.325733e+38 	 3.532446e+22 	 6.661086e+09
1.20023142e+01 	 7.015422e-06 	 2.414499e+03 	 9.739800e+04 	 1.361678e+09 	 1.438291e+22 	 3.465353e+08 	 8.148274e+38 	 5.325719e+38 	 3.492235e+22 	 6.595477e+09
1.20024026e+01 	 7.096252e-06 	 2.411355e+03 	 9.628697e+04 	 1.358135e+09 	 1.421282e+22 	 3.421205e+08 	 8.148221e+38 	 5.325705e+38 	 3.452510e+22 	 6.530502e+09
1.20024910e+01 	 7.178014e-06 	 2.408217e+03 	 9.518862e+04 	 1.354602e+09 	 1.404486e+22 	 3.377622e+08 	 8.148168e+38 	 5.325692e+38 	 3.413265e+22 	 6.466157e+09
1.20025793e+01 	 7.260718e-06 	 2.405085e+03 	 9.410279e+04 	 1.351081e+09 	 1.387898e+22 	 3.334599e+08 	 8.148115e+38 	 5.325678e+38 	 3.374493e+22 	 6.402434e+09
1.20026675e+01 	 7.344376e-06 	 2.401959e+03 	 9.302935e+04 	 1.347571e+09 	 1.371516e+22 	 3.292128e+08 	 8.148062e+38 	 5.325664e+38 	 3.336189e+22 	 6.339328e+09
1.20027556e+01 	 7.428997e-06 	 2.398838e+03 	 9.196816e+04 	 1.344071e+09 	 1.355338e+22 	 3.250202e+08 	 8.148009e+38 	 5.325650e+38 	 3.298346e+22 	 6.276834e+09
1.20028436e+01 	 7.514593e-06 	 2.395723e+03 	 9.091907e+04 	 1.340583e+09 	 1.339361e+22 	 3.208813e+08 	 8.147956e+38 	 5.325636e+38 	 3.260960e+22 	 6.214945e+09
1.20029315e+01 	 7.601176e-06 	 2.392614e+03 	 8.988194e+04 	 1.337106e+09 	 1.323582e+22 	 3.167956e+08 	 8.147903e+38 	 5.325622e+38 	 3.224024e+22 	 6.153655e+09
1.20030194e+01 	 7.688756e-06 	 2.389511e+03 	 8.885665e+04 	 1.333639e+09 	 1.307998e+22 	 3.127622e+08 	 8.147850e+38 	 5.325608e+38 	 3.187532e+22 	 6.092959e+09
1.20031071e+01 	 7.777346e-06 	 2.386413e+03 	 8.784305e+04 	 1.330184e+09 	 1.292608e+22 	 3.087806e+08 	 8.147797e+38 	 5.325594e+38 	 3.151480e+22 	 6.032852e+09
1.20031948e+01 	 7.866956e-06 	 2.383321e+03 	 8.684102e+04 	 1.326739e+09 	 1.277409e+22 	 3.048500e+08 	 8.147745e+38 	 5.325580e+38 	 3.115860e+22 	 5.973327e+09
1.20032824e+01 	 7.957599e-06 	 2.380235e+03 	 8.585042e+04 	 1.323305e+09 	 1.262398e+22 	 3.009697e+08 	 8.147692e+38 	 5.325566e+38 	 3.080668e+22 	 5.914379e+09
1.20033699e+01 	 8.049287e-06 	 2.377154e+03 	 8.487111e+04 	 1.319882e+09 	 1.247572e+22 	 2.971393e+08 	 8.147639e+38 	 5.325552e+38 	 3.045899e+22 	 5.856003e+09
1.20034573e+01 	 8.142031e-06 	 2.374080e+03 	 8.390298e+04 	 1.316470e+09 	 1.232931e+22 	 2.933579e+08 	 8.147586e+38 	 5.325538e+38 	 3.011547e+22 	 5.798193e+09
1.20035446e+01 	 8.235844e-06 	 2.371010e+03 	 8.294589e+04 	 1.313068e+09 	 1.218470e+22 	 2.896250e+08 	 8.147533e+38 	 5.325524e+38 	 2.977607e+22 	 5.740943e+09
1.20036318e+01 	 8.330738e-06 	 2.367947e+03 	 8.199972e+04 	 1.309677e+09 	 1.204188e+22 	 2.859399e+08 	 8.147480e+38 	 5.325510e+38 	 2.944074e+22 	 5.684249e+09
1.20037190e+01 	 8.426726e-06 	 2.364889e+03 	 8.106434e+04 	 1.306297e+09 	 1.190083e+22 	 2.823021e+08 	 8.147427e+38 	 5.325496e+38 	 2.910943e+22 	 5.628104e+09
1.20038061e+01 	 8.523819e-06 	 2.361837e+03 	 8.013963e+04 	 1.302927e+09 	 1.176152e+22 	 2.787108e+08 	 8.147374e+38 	 5.325482e+38 	 2.878208e+22 	 5.572505e+09
1.20038931e+01 	 8.622032e-06 	 2.358790e+03 	 7.922547e+04 	 1.299568e+09 	 1.162393e+22 	 2.751656e+08 	 8.147322e+38 	 5.325468e+38 	 2.845865e+22 	 5.517445e+09
1.20039800e+01 	 8.721376e-06 	 2.355750e+03 	 7.832174e+04 	 1.296220e+09 	 1.148804e+22 	 2.716658e+08 	 8.147269e+38 	 5.325454e+38 	 2.813909e+22 	 5.462919e+09
1.20040668e+01 	 8.821865e-06 	 2.352714e+03 	 7.742831e+04 	 1.292882e+09 	 1.135382e+22 	 2.682108e+08 	 8.147216e+38 	 5.325440e+38 	 2.782335e+22 	 5.408923e+09
1.20041536e+01 	 8.923512e-06 	 2.349685e+03 	 7.654508e+04 	 1.289554e+09 	 1.122126e+22 	 2.648001e+08 	 8.147163e+38 	 5.325426e+38 	 2.751137e+22 	 5.355451e+09
1.20042403e+01 	 9.026330e-06 	 2.346661e+03 	 7.567192e+04 	 1.286237e+09 	 1.109034e+22 	 2.614330e+08 	 8.147110e+38 	 5.325411e+38 	 2.720312e+22 	 5.302499e+09
1.20043269e+01 	 9.130333e-06 	 2.343643e+03 	 7.480873e+04 	 1.282931e+09 	 1.096102e+22 	 2.581091e+08 	 8.147057e+38 	 5.325397e+38 	 2.689855e+22 	 5.250060e+09
1.20044134e+01 	 9.235535e-06 	 2.340630e+03 	 7.395538e+04 	 1.279634e+09 	 1.083330e+22 	 2.548277e+08 	 8.147004e+38 	 5.325383e+38 	 2.659761e+22 	 5.198132e+09
1.20044999e+01 	 9.341949e-06 	 2.337623e+03 	 7.311176e+04 	 1.276349e+09 	 1.070715e+22 	 2.515883e+08 	 8.146951e+38 	 5.325369e+38 	 2.630026e+22 	 5.146707e+09
1.20045862e+01 	 9.449589e-06 	 2.334621e+03 	 7.227777e+04 	 1.273073e+09 	 1.058255e+22 	 2.483904e+08 	 8.146898e+38 	 5.325354e+38 	 2.600644e+22 	 5.095783e+09
1.20046725e+01 	 9.558469e-06 	 2.331625e+03 	 7.145329e+04 	 1.269808e+09 	 1.045949e+22 	 2.452335e+08 	 8.146846e+38 	 5.325340e+38 	 2.571612e+22 	 5.045353e+09
1.20047587e+01 	 9.668605e-06 	 2.328635e+03 	 7.063821e+04 	 1.266553e+09 	 1.033793e+22 	 2.421169e+08 	 8.146793e+38 	 5.325326e+38 	 2.542926e+22 	 4.995414e+09
1.20048449e+01 	 9.780009e-06 	 2.325650e+03 	 6.983244e+04 	 1.263308e+09 	 1.021787e+22 	 2.390402e+08 	 8.146740e+38 	 5.325312e+38 	 2.514580e+22 	 4.945960e+09
1.20049310e+01 	 9.892697e-06 	 2.322671e+03 	 6.903585e+04 	 1.260073e+09 	 1.009928e+22 	 2.360029e+08 	 8.146687e+38 	 5.325297e+38 	 2.486571e+22 	 4.896987e+09
1.20050170e+01 	 1.000668e-05 	 2.319698e+03 	 6.824835e+04 	 1.256849e+09 	 9.982152e+21 	 2.330045e+08 	 8.146634e+38 	 5.325283e+38 	 2.458895e+22 	 4.848490e+09
1.20051029e+01 	 1.012198e-05 	 2.316730e+03 	 6.746984e+04 	 1.253635e+09 	 9.866456e+21 	 2.300444e+08 	 8.146581e+38 	 5.325268e+38 	 2.431548e+22 	 4.800465e+09
1.20051887e+01 	 1.023861e-05 	 2.313767e+03 	 6.670020e+04 	 1.250431e+09 	 9.752179e+21 	 2.271222e+08 	 8.146528e+38 	 5.325254e+38 	 2.404524e+22 	 4.752907e+09
1.20052745e+01 	 1.035659e-05 	 2.310810e+03 	 6.593934e+04 	 1.247237e+09 	 9.639303e+21 	 2.242374e+08 	 8.146475e+38 	 5.325240e+38 	 2.377821e+22 	 4.705812e+09
1.20053602e+01 	 1.047592e-05 	 2.307859e+03 	 6.518717e+04 	 1.244053e+09 	 9.527809e+21 	 2.213894e+08 	 8.146422e+38 	 5.325225e+38 	 2.351434e+22 	 4.659176e+09
1.20054459e+01 	 1.059663e-05 	 2.304913e+03 	 6.444357e+04 	 1.240879e+09 	 9.417680e+21 	 2.185779e+08 	 8.146369e+38 	 5.325211e+38 	 2.325360e+22 	 4.612993e+09
1.20055314e+01 	 1.071872e-05 	 2.301972e+03 	 6.370846e+04 	 1.237715e+09 	 9.308899e+21 	 2.158024e+08 	 8.146316e+38 	 5.325196e+38 	 2.299594e+22 	 4.567260e+09
1.20056169e+01 	 1.084223e-05 	 2.299037e+03 	 6.298173e+04 	 1.234561e+09 	 9.201448e+21 	 2.130623e+08 	 8.146263e+38 	 5.325181e+38 	 2.274133e+22 	 4.521972e+09
1.20057023e+01 	 1.096716e-05 	 2.296108e+03 	 6.226329e+04 	 1.231417e+09 	 9.095310e+21 	 2.103573e+08 	 8.146210e+38 	 5.325167e+38 	 2.248972e+22 	 4.477125e+09
1.20057877e+01 	 1.109353e-05 	 2.293184e+03 	 6.155305e+04 	 1.228282e+09 	 8.990469e+21 	 2.076868e+08 	 8.146157e+38 	 5.325152e+38 	 2.224109e+22 	 4.432716e+09
1.20058730e+01 	 1.122135e-05 	 2.290266e+03 	 6.085091e+04 	 1.225158e+09 	 8.886908e+21 	 2.050505e+08 	 8.146104e+38 	 5.325138e+38 	 2.199539e+22 	 4.388738e+09
1.20059582e+01 	 1.135065e-05 	 2.287353e+03 	 6.015677e+04 	 1.222044e+09 	 8.784612e+21 	 2.024479e+08 	 8.146051e+38 	 5.325123e+38 	 2.175259e+22 	 4.345190e+09
1.20060434e+01 	 1.148144e-05 	 2.284445e+03 	 5.947056e+04 	 1.218939e+09 	 8.683564e+21 	 1.998785e+08 	 8.145998e+38 	 5.325108e+38 	 2.151265e+22 	 4.302065e+09
1.20061285e+01 	 1.161373e-05 	 2.281543e+03 	 5.879217e+04 	 1.215844e+09 	 8.583749e+21 	 1.973420e+08 	 8.145945e+38 	 5.325094e+38 	 2.127555e+22 	 4.259361e+09
1.20062135e+01 	 1.174755e-05 	 2.278647e+03 	 5.812152e+04 	 1.212759e+09 	 8.485150e+21 	 1.948379e+08 	 8.145892e+38 	 5.325079e+38 	 2.104123e+22 	 4.217073e+09
1.20062985e+01 	 1.188291e-05 	 2.275756e+03 	 5.745853e+04 	 1.209683e+09 	 8.387753e+21 	 1.923658e+08 	 8.145839e+38 	 5.325064e+38 	 2.080968e+22 	 4.175198e+09
1.20063833e+01 	 1.201983e-05 	 2.272870e+03 	 5.680309e+04 	 1.206618e+09 	 8.291542e+21 	 1.899253e+08 	 8.145786e+38 	 5.325050e+38 	 2.058084e+22 	 4.133730e+09
1.20064682e+01 	 1.215833e-05 	 2.269990e+03 	 5.615513e+04 	 1.203562e+09 	 8.196501e+21 	 1.875160e+08 	 8.145733e+38 	 5.325035e+38 	 2.035470e+22 	 4.092668e+09
1.20065529e+01 	 1.229843e-05 	 2.267116e+03 	 5.551457e+04 	 1.200515e+09 	 8.102618e+21 	 1.851374e+08 	 8.145680e+38 	 5.325020e+38 	 2.013122e+22 	 4.052005e+09
1.20066376e+01 	 1.244014e-05 	 2.264246e+03 	 5.488131e+04 	 1.197478e+09 	 8.009875e+21 	 1.827892e+08 	 8.145627e+38 	 5.325005e+38 	 1.991035e+22 	 4.011740e+09
1.20067223e+01 	 1.258348e-05 	 2.261382e+03 	 5.425527e+04 	 1.194451e+09 	 7.918259e+21 	 1.804710e+08 	 8.145573e+38 	 5.324990e+38 	 1.969208e+22 	 3.971867e+09
1.20068069e+01 	 1.272847e-05 	 2.258524e+03 	 5.363637e+04 	 1.191434e+09 	 7.827757e+21 	 1.781825e+08 	 8.145520e+38 	 5.324975e+38 	 1.947638e+22 	 3.932384e+09
1.20068914e+01 	 1.287514e-05 	 2.255671e+03 	 5.302454e+04 	 1.188425e+09 	 7.738353e+21 	 1.759231e+08 	 8.145467e+38 	 5.324960e+38 	 1.926319e+22 	 3.893286e+09
1.20069758e+01 	 1.302349e-05 	 2.252824e+03 	 5.241968e+04 	 1.185427e+09 	 7.650034e+21 	 1.736926e+08 	 8.145414e+38 	 5.324946e+38 	 1.905251e+22 	 3.854570e+09
1.20070602e+01 	 1.317356e-05 	 2.249981e+03 	 5.182173e+04 	 1.182438e+09 	 7.562787e+21 	 1.714905e+08 	 8.145361e+38 	 5.324931e+38 	 1.884430e+22 	 3.816231e+09
1.20071446e+01 	 1.332535e-05 	 2.247145e+03 	 5.123059e+04 	 1.179458e+09 	 7.476597e+21 	 1.693166e+08 	 8.145307e+38 	 5.324916e+38 	 1.863852e+22 	 3.778267e+09
1.20072289e+01 	 1.347889e-05 	 2.244313e+03 	 5.064620e+04 	 1.176487e+09 	 7.391451e+21 	 1.671704e+08 	 8.145254e+38 	 5.324901e+38 	 1.843514e+22 	 3.740674e+09
1.20073131e+01 	 1.363421e-05 	 2.241487e+03 	 5.006847e+04 	 1.173526e+09 	 7.307336e+21 	 1.650516e+08 	 8.145201e+38 	 5.324886e+38 	 1.823414e+22 	 3.703449e+09
1.20073972e+01 	 1.379131e-05 	 2.238666e+03 	 4.949734e+04 	 1.170575e+09 	 7.224240e+21 	 1.629599e+08 	 8.145148e+38 	 5.324870e+38 	 1.803550e+22 	 3.666587e+09
1.20074813e+01 	 1.395022e-05 	 2.235851e+03 	 4.893271e+04 	 1.167632e+09 	 7.142150e+21 	 1.608948e+08 	 8.145094e+38 	 5.324855e+38 	 1.783917e+22 	 3.630085e+09
1.20075654e+01 	 1.411097e-05 	 2.233041e+03 	 4.837453e+04 	 1.164699e+09 	 7.061052e+21 	 1.588561e+08 	 8.145041e+38 	 5.324840e+38 	 1.764513e+22 	 3.593940e+09
1.20076494e+01 	 1.427356e-05 	 2.230237e+03 	 4.782272e+04 	 1.161776e+09 	 6.980933e+21 	 1.568434e+08 	 8.144988e+38 	 5.324825e+38 	 1.745335e+22 	 3.558148e+09
1.20077333e+01 	 1.443803e-05 	 2.227437e+03 	 4.727720e+04 	 1.158861e+09 	 6.901783e+21 	 1.548564e+08 	 8.144934e+38 	 5.324810e+38 	 1.726381e+22 	 3.522707e+09
1.20078172e+01 	 1.460440e-05 	 2.224644e+03 	 4.673791e+04 	 1.155956e+09 	 6.823588e+21 	 1.528948e+08 	 8.144881e+38 	 5.324795e+38 	 1.707648e+22 	 3.487612e+09
1.20079010e+01 	 1.477268e-05 	 2.221855e+03 	 4.620476e+04 	 1.153060e+09 	 6.746338e+21 	 1.509581e+08 	 8.144828e+38 	 5.324779e+38 	 1.689132e+22 	 3.452860e+09
1.20079848e+01 	 1.494290e-05 	 2.219072e+03 	 4.567770e+04 	 1.150173e+09 	 6.670019e+21 	 1.490462e+08 	 8.144774e+38 	 5.324764e+38 	 1.670832e+22 	 3.418448e+09
1.20080685e+01 	 1.511509e-05 	 2.216294e+03 	 4.515665e+04 	 1.147295e+09 	 6.594621e+21 	 1.471586e+08 	 8.144721e+38 	 5.324749e+38 	 1.652745e+22 	 3.384373e+09
1.20081522e+01 	 1.528925e-05 	 2.213521e+03 	 4.464154e+04 	 1.144426e+09 	 6.520130e+21 	 1.452951e+08 	 8.144667e+38 	 5.324734e+38 	 1.634868e+22 	 3.350632e+09
1.20082358e+01 	 1.546543e-05 	 2.210754e+03 	 4.413231e+04 	 1.141567e+09 	 6.446536e+21 	 1.434554e+08 	 8.144614e+38 	 5.324718e+38 	 1.617198e+22 	 3.317220e+09
1.20083194e+01 	 1.564363e-05 	 2.207992e+03 	 4.362889e+04 	 1.138716e+09 	 6.373828e+21 	 1.416391e+08 	 8.144560e+38 	 5.324703e+38 	 1.599734e+22 	 3.284136e+09
1.20084029e+01 	 1.582389e-05 	 2.205235e+03 	 4.313121e+04 	 1.135874e+09 	 6.301996e+21 	 1.398460e+08 	 8.144507e+38 	 5.324688e+38 	 1.582472e+22 	 3.251376e+09
1.20084863e+01 	 1.600623e-05 	 2.202484e+03 	 4.263921e+04 	 1.133042e+09 	 6.231027e+21 	 1.380757e+08 	 8.144453e+38 	 5.324672e+38 	 1.565411e+22 	 3.218936e+09
1.20085697e+01 	 1.619066e-05 	 2.199738e+03 	 4.215282e+04 	 1.130218e+09 	 6.160912e+21 	 1.363280e+08 	 8.144399e+38 	 5.324657e+38 	 1.548547e+22 	 3.186815e+09
1.20086531e+01 	 1.637723e-05 	 2.196997e+03 	 4.167198e+04 	 1.127403e+09 	 6.091639e+21 	 1.346026e+08 	 8.144346e+38 	 5.324641e+38 	 1.531878e+22 	 3.155008e+09
1.20087364e+01 	 1.656594e-05 	 2.194262e+03 	 4.119662e+04 	 1.124598e+09 	 6.023198e+21 	 1.328992e+08 	 8.144292e+38 	 5.324626e+38 	 1.515402e+22 	 3.123512e+09
1.20088197e+01 	 1.675682e-05 	 2.191531e+03 	 4.072669e+04 	 1.121801e+09 	 5.955578e+21 	 1.312175e+08 	 8.144238e+38 	 5.324610e+38 	 1.499117e+22 	 3.092325e+09
1.20089029e+01 	 1.694991e-05 	 2.188806e+03 	 4.026212e+04 	 1.119013e+09 	 5.888770e+21 	 1.295572e+08 	 8.144185e+38 	 5.324594e+38 	 1.483020e+22 	 3.061444e+09
1.20089860e+01 	 1.714522e-05 	 2.186087e+03 	 3.980284e+04 	 1.116234e+09 	 5.822762e+21 	 1.279180e+08 	 8.144131e+38 	 5.324579e+38 	 1.467109e+22 	 3.030866e+09
1.20090691e+01 	 1.734278e-05 	 2.183372e+03 	 3.934881e+04 	 1.113463e+09 	 5.757545e+21 	 1.262998e+08 	 8.144077e+38 	 5.324563e+38 	 1.451382e+22 	 3.000587e+09
1.20091522e+01 	 1.754262e-05 	 2.180663e+03 	 3.889995e+04 	 1.110702e+09 	 5.693109e+21 	 1.247021e+08 	 8.144023e+38 	 5.324548e+38 	 1.435836e+22 	 2.970605e+09
1.20092352e+01 	 1.774476e-05 	 2.177959e+03 	 3.845622e+04 	 1.107949e+09 	 5.629445e+21 	 1.231248e+08 	 8.143970e+38 	 5.324532e+38 	 1.420470e+22 	 2.940918e+09
1.20093182e+01 	 1.794924e-05 	 2.175260e+03 	 3.801754e+04 	 1.105205e+09 	 5.566542e+21 	 1.215676e+08 	 8.143916e+38 	 5.324516e+38 	 1.405280e+22 	 2.911521e+09
1.20094012e+01 	 1.815606e-05 	 2.172567e+03 	 3.758387e+04 	 1.102470e+09 	 5.504391e+21 	 1.200303e+08 	 8.143862e+38 	 5.324500e+38 	 1.390266e+22 	 2.882413e+09
1.20094840e+01 	 1.836527e-05 	 2.169879e+03 	 3.715515e+04 	 1.099743e+09 	 5.442984e+21 	 1.185125e+08 	 8.143808e+38 	 5.324485e+38 	 1.375424e+22 	 2.853591e+09
1.20095669e+01 	 1.857689e-05 	 2.167195e+03 	 3.673132e+04 	 1.097025e+09 	 5.382309e+21 	 1.170140e+08 	 8.143754e+38 	 5.324469e+38 	 1.360753e+22 	 2.825052e+09
1.20096497e+01 	 1.879095e-05 	 2.164518e+03 	 3.631232e+04 	 1.094316e+09 	 5.322359e+21 	 1.155346e+08 	 8.143700e+38 	 5.324453e+38 	 1.346251e+22 	 2.796792e+09
1.20097325e+01 	 1.900748e-05 	 2.161845e+03 	 3.589810e+04 	 1.091615e+09 	 5.263124e+21 	 1.140740e+08 	 8.143646e+38 	 5.324437e+38 	 1.331915e+22 	 2.768810e+09
1.20098152e+01 	 1.922650e-05 	 2.159177e+03 	 3.548861e+04 	 1.088923e+09 	 5.204596e+21 	 1.126321e+08 	 8.143592e+38 	 5.324421e+38 	 1.317744e+22 	 2.741103e+09
1.20098979e+01 	 1.944805e-05 	 2.156515e+03 	 3.508379e+04 	 1.086239e+09 	 5.146765e+21 	 1.112085e+08 	 8.143538e+38 	 5.324405e+38 	 1.303736e+22 	 2.713668e+09
1.20099805e+01 	 1.967215e-05 	 2.153858e+03 	 3.468358e+04 	 1.083564e+09 	 5.089623e+21 	 1.098030e+08 	 8.143484e+38 	 5.324389e+38 	 1.289888e+22 	 2.686503e+09
1.20100631e+01 	 1.989883e-05 	 2.151206e+03 	 3.428794e+04 	 1.080897e+09 	 5.033162e+21 	 1.084154e+08 	 8.143429e+38 	 5.324373e+38 	 1.276199e+22 	 2.659605e+09
1.20101457e+01 	 2.012812e-05 	 2.148560e+03 	 3.389682e+04 	 1.078239e+09 	 4.977372e+21 	 1.070454e+08 	 8.143375e+38 	 5.324357e+38 	 1.262667e+22 	 2.632971e+09
1.20102282e+01 	 2.036006e-05 	 2.145918e+03 	 3.351015e+04 	 1.075590e+09 	 4.922246e+21 	 1.056929e+08 	 8.143321e+38 	 5.324341e+38 	 1.249289e+22 	 2.606598e+09
1.20103107e+01 	 2.059467e-05 	 2.143282e+03 	 3.312790e+04 	 1.072948e+09 	 4.867776e+21 	 1.043576e+08 	 8.143267e+38 	 5.324325e+38 	 1.236065e+22 	 2.580485e+09
1.20103931e+01 	 2.083198e-05 	 2.140650e+03 	 3.275001e+04 	 1.070316e+09 	 4.813952e+21 	 1.030393e+08 	 8.143212e+38 	 5.324309e+38 	 1.222992e+22 	 2.554629e+09
1.20104755e+01 	 2.107203e-05 	 2.138024e+03 	 3.237642e+04 	 1.067691e+09 	 4.760768e+21 	 1.017378e+08 	 8.143158e+38 	 5.324292e+38 	 1.210069e+22 	 2.529027e+09
1.20105579e+01 	 2.131484e-05 	 2.135403e+03 	 3.200710e+04 	 1.065075e+09 	 4.708215e+21 	 1.004528e+08 	 8.143104e+38 	 5.324276e+38 	 1.197293e+22 	 2.503676e+09
1.20106402e+01 	 2.156045e-05 	 2.132788e+03 	 3.164199e+04 	 1.062467e+09 	 4.656285e+21 	 9.918413e+07 	 8.143049e+38 	 5.324260e+38 	 1.184663e+22 	 2.478575e+09
1.20107225e+01 	 2.180889e-05 	 2.130177e+03 	 3.128105e+04 	 1.059868e+09 	 4.604971e+21 	 9.793162e+07 	 8.142995e+38 	 5.324243e+38 	 1.172177e+22 	 2.453721e+09
1.20108048e+01 	 2.206020e-05 	 2.127571e+03 	 3.092423e+04 	 1.057277e+09 	 4.554265e+21 	 9.669503e+07 	 8.142940e+38 	 5.324227e+38 	 1.159833e+22 	 2.429112e+09
1.20108870e+01 	 2.231440e-05 	 2.124971e+03 	 3.057147e+04 	 1.054694e+09 	 4.504159e+21 	 9.547418e+07 	 8.142885e+38 	 5.324211e+38 	 1.147630e+22 	 2.404745e+09
1.20109692e+01 	 2.257153e-05 	 2.122376e+03 	 3.022274e+04 	 1.052119e+09 	 4.454647e+21 	 9.426884e+07 	 8.142831e+38 	 5.324194e+38 	 1.135567e+22 	 2.380618e+09
1.20110513e+01 	 2.283162e-05 	 2.119786e+03 	 2.987798e+04 	 1.049553e+09 	 4.405721e+21 	 9.307883e+07 	 8.142776e+38 	 5.324178e+38 	 1.123640e+22 	 2.356728e+09
1.20111334e+01 	 2.309471e-05 	 2.117201e+03 	 2.953716e+04 	 1.046995e+09 	 4.357373e+21 	 9.190395e+07 	 8.142722e+38 	 5.324161e+38 	 1.111849e+22 	 2.333073e+09
1.20112155e+01 	 2.336083e-05 	 2.114621e+03 	 2.920023e+04 	 1.044445e+09 	 4.309597e+21 	 9.074400e+07 	 8.142667e+38 	 5.324145e+38 	 1.100192e+22 	 2.309652e+09
1.20112976e+01 	 2.363002e-05 	 2.112046e+03 	 2.886714e+04 	 1.041903e+09 	 4.262385e+21 	 8.959880e+07 	 8.142612e+38 	 5.324128e+38 	 1.088668e+22 	 2.286461e+09
1.20113796e+01 	 2.390231e-05 	 2.109476e+03 	 2.853785e+04 	 1.039369e+09 	 4.215730e+21 	 8.846815e+07 	 8.142557e+38 	 5.324112e+38 	 1.077274e+22 	 2.263499e+09
1.20114616e+01 	 2.417774e-05 	 2.106912e+03 	 2.821232e+04 	 1.036843e+09 	 4.169626e+21 	 8.735187e+07 	 8.142502e+38 	 5.324095e+38 	 1.066010e+22 	 2.240763e+09
1.20115436e+01 	 2.445634e-05 	 2.104352e+03 	 2.789049e+04 	 1.034326e+09 	 4.124065e+21 	 8.624978e+07 	 8.142447e+38 	 5.324078e+38 	 1.054874e+22 	 2.218251e+09
1.20116255e+01 	 2.473816e-05 	 2.101798e+03 	 2.757235e+04 	 1.031816e+09 	 4.079041e+21 	 8.516169e+07 	 8.142392e+38 	 5.324062e+38 	 1.043863e+22 	 2.195961e+09
