r (cm)        	 u (cm/s)    	 cs (cm/s)   	 rho (g/cm3) 	 T (K)       	 P (dyne/cm2) 	 phi         	 L (erg/s)   	 L* (erg/s)  	 E (erg)     	 tau         	 lambda     
1.20035948e+06 	 1.241357e+01 	 3.095453e+08 	 1.740212e+04 	 1.545317e+09 	 1.604931e+22 	 2.494410e+07 	 1.371092e+39 	 8.961976e+38 	 4.566847e+22 	 1.074293e+09 	 3.333333e-01
1.20038784e+06 	 1.253480e+01 	 3.093314e+08 	 1.723290e+04 	 1.543182e+09 	 1.595151e+22 	 2.468571e+07 	 1.370999e+39 	 8.961481e+38 	 4.540244e+22 	 1.064811e+09 	 3.333333e-01
1.20041626e+06 	 1.265720e+01 	 3.091180e+08 	 1.706533e+04 	 1.541054e+09 	 1.585447e+22 	 2.443002e+07 	 1.370906e+39 	 8.960983e+38 	 4.513838e+22 	 1.055411e+09 	 3.333333e-01
1.20044473e+06 	 1.278080e+01 	 3.089051e+08 	 1.689939e+04 	 1.538931e+09 	 1.575819e+22 	 2.417700e+07 	 1.370812e+39 	 8.960483e+38 	 4.487628e+22 	 1.046093e+09 	 3.333333e-01
1.20047326e+06 	 1.290560e+01 	 3.086926e+08 	 1.673506e+04 	 1.536815e+09 	 1.566265e+22 	 2.392664e+07 	 1.370718e+39 	 8.959981e+38 	 4.461613e+22 	 1.036855e+09 	 3.333333e-01
1.20050185e+06 	 1.303162e+01 	 3.084806e+08 	 1.657233e+04 	 1.534705e+09 	 1.556786e+22 	 2.367889e+07 	 1.370623e+39 	 8.959476e+38 	 4.435791e+22 	 1.027697e+09 	 3.333333e-01
1.20053049e+06 	 1.315888e+01 	 3.082691e+08 	 1.641119e+04 	 1.532601e+09 	 1.547380e+22 	 2.343374e+07 	 1.370528e+39 	 8.958968e+38 	 4.410161e+22 	 1.018618e+09 	 3.333333e-01
1.20055919e+06 	 1.328737e+01 	 3.080580e+08 	 1.625161e+04 	 1.530502e+09 	 1.538047e+22 	 2.319116e+07 	 1.370433e+39 	 8.958457e+38 	 4.384720e+22 	 1.009618e+09 	 3.333333e-01
1.20058795e+06 	 1.341711e+01 	 3.078473e+08 	 1.609358e+04 	 1.528410e+09 	 1.528786e+22 	 2.295111e+07 	 1.370337e+39 	 8.957944e+38 	 4.359467e+22 	 1.000696e+09 	 3.333333e-01
1.20061677e+06 	 1.354812e+01 	 3.076371e+08 	 1.593709e+04 	 1.526324e+09 	 1.519597e+22 	 2.271357e+07 	 1.370241e+39 	 8.957429e+38 	 4.334401e+22 	 9.918520e+08 	 3.333333e-01
1.20064565e+06 	 1.368041e+01 	 3.074274e+08 	 1.578212e+04 	 1.524243e+09 	 1.510479e+22 	 2.247852e+07 	 1.370144e+39 	 8.956910e+38 	 4.309519e+22 	 9.830842e+08 	 3.333333e-01
1.20067459e+06 	 1.381399e+01 	 3.072181e+08 	 1.562865e+04 	 1.522169e+09 	 1.501431e+22 	 2.224592e+07 	 1.370047e+39 	 8.956389e+38 	 4.284820e+22 	 9.743924e+08 	 3.333333e-01
1.20070360e+06 	 1.394887e+01 	 3.070093e+08 	 1.547668e+04 	 1.520100e+09 	 1.492452e+22 	 2.201576e+07 	 1.369949e+39 	 8.955865e+38 	 4.260302e+22 	 9.657761e+08 	 3.333333e-01
1.20073266e+06 	 1.408507e+01 	 3.068009e+08 	 1.532619e+04 	 1.518037e+09 	 1.483542e+22 	 2.178800e+07 	 1.369851e+39 	 8.955339e+38 	 4.235964e+22 	 9.572345e+08 	 3.333333e-01
1.20076179e+06 	 1.422259e+01 	 3.065930e+08 	 1.517716e+04 	 1.515980e+09 	 1.474701e+22 	 2.156262e+07 	 1.369752e+39 	 8.954810e+38 	 4.211804e+22 	 9.487671e+08 	 3.333333e-01
1.20079098e+06 	 1.436146e+01 	 3.063855e+08 	 1.502958e+04 	 1.513929e+09 	 1.465927e+22 	 2.133960e+07 	 1.369653e+39 	 8.954278e+38 	 4.187822e+22 	 9.403732e+08 	 3.333333e-01
1.20082023e+06 	 1.450168e+01 	 3.061785e+08 	 1.488344e+04 	 1.511884e+09 	 1.457220e+22 	 2.111891e+07 	 1.369554e+39 	 8.953743e+38 	 4.164014e+22 	 9.320522e+08 	 3.333333e-01
1.20084954e+06 	 1.464326e+01 	 3.059719e+08 	 1.473871e+04 	 1.509844e+09 	 1.448581e+22 	 2.090053e+07 	 1.369454e+39 	 8.953205e+38 	 4.140381e+22 	 9.238034e+08 	 3.333333e-01
1.20087891e+06 	 1.478623e+01 	 3.057657e+08 	 1.459539e+04 	 1.507810e+09 	 1.440007e+22 	 2.068443e+07 	 1.369354e+39 	 8.952665e+38 	 4.116922e+22 	 9.156262e+08 	 3.333333e-01
1.20090834e+06 	 1.493059e+01 	 3.055600e+08 	 1.445347e+04 	 1.505782e+09 	 1.431499e+22 	 2.047059e+07 	 1.369253e+39 	 8.952122e+38 	 4.093632e+22 	 9.075201e+08 	 3.333333e-01
1.20093784e+06 	 1.507636e+01 	 3.053548e+08 	 1.431293e+04 	 1.503760e+09 	 1.423055e+22 	 2.025898e+07 	 1.369151e+39 	 8.951576e+38 	 4.070513e+22 	 8.994845e+08 	 3.333333e-01
1.20096741e+06 	 1.522355e+01 	 3.051500e+08 	 1.417375e+04 	 1.501743e+09 	 1.414676e+22 	 2.004958e+07 	 1.369050e+39 	 8.951027e+38 	 4.047561e+22 	 8.915187e+08 	 3.333333e-01
1.20099704e+06 	 1.537218e+01 	 3.049456e+08 	 1.403593e+04 	 1.499732e+09 	 1.406360e+22 	 1.984237e+07 	 1.368947e+39 	 8.950475e+38 	 4.024775e+22 	 8.836221e+08 	 3.333333e-01
1.20102674e+06 	 1.552225e+01 	 3.047416e+08 	 1.389944e+04 	 1.497727e+09 	 1.398108e+22 	 1.963732e+07 	 1.368845e+39 	 8.949921e+38 	 4.002155e+22 	 8.757943e+08 	 3.333333e-01
1.20105650e+06 	 1.567379e+01 	 3.045381e+08 	 1.376429e+04 	 1.495727e+09 	 1.389918e+22 	 1.943441e+07 	 1.368741e+39 	 8.949363e+38 	 3.979698e+22 	 8.680345e+08 	 3.333333e-01
1.20108633e+06 	 1.582681e+01 	 3.043351e+08 	 1.363045e+04 	 1.493733e+09 	 1.381789e+22 	 1.923363e+07 	 1.368638e+39 	 8.948803e+38 	 3.957403e+22 	 8.603423e+08 	 3.333333e-01
1.20111623e+06 	 1.598132e+01 	 3.041324e+08 	 1.349791e+04 	 1.491745e+09 	 1.373722e+22 	 1.903493e+07 	 1.368533e+39 	 8.948239e+38 	 3.935269e+22 	 8.527170e+08 	 3.333333e-01
1.20114619e+06 	 1.613733e+01 	 3.039302e+08 	 1.336666e+04 	 1.489762e+09 	 1.365716e+22 	 1.883831e+07 	 1.368429e+39 	 8.947673e+38 	 3.913294e+22 	 8.451580e+08 	 3.333333e-01
1.20117623e+06 	 1.629487e+01 	 3.037284e+08 	 1.323668e+04 	 1.487784e+09 	 1.357770e+22 	 1.864375e+07 	 1.368323e+39 	 8.947103e+38 	 3.891478e+22 	 8.376649e+08 	 3.333333e-01
1.20120632e+06 	 1.645394e+01 	 3.035271e+08 	 1.310797e+04 	 1.485813e+09 	 1.349885e+22 	 1.845121e+07 	 1.368218e+39 	 8.946531e+38 	 3.869819e+22 	 8.302370e+08 	 3.333333e-01
1.20123649e+06 	 1.661456e+01 	 3.033262e+08 	 1.298051e+04 	 1.483846e+09 	 1.342058e+22 	 1.826069e+07 	 1.368112e+39 	 8.945955e+38 	 3.848317e+22 	 8.228737e+08 	 3.333333e-01
1.20126672e+06 	 1.677675e+01 	 3.031257e+08 	 1.285429e+04 	 1.481886e+09 	 1.334291e+22 	 1.807215e+07 	 1.368005e+39 	 8.945377e+38 	 3.826969e+22 	 8.155746e+08 	 3.333333e-01
1.20129702e+06 	 1.694051e+01 	 3.029257e+08 	 1.272930e+04 	 1.479930e+09 	 1.326582e+22 	 1.788558e+07 	 1.367898e+39 	 8.944795e+38 	 3.805773e+22 	 8.083391e+08 	 3.333333e-01
1.20132740e+06 	 1.710588e+01 	 3.027261e+08 	 1.260552e+04 	 1.477981e+09 	 1.318930e+22 	 1.770095e+07 	 1.367790e+39 	 8.944210e+38 	 3.784729e+22 	 8.011666e+08 	 3.333333e-01
1.20135784e+06 	 1.727286e+01 	 3.025269e+08 	 1.248294e+04 	 1.476036e+09 	 1.311335e+22 	 1.751825e+07 	 1.367682e+39 	 8.943622e+38 	 3.763835e+22 	 7.940567e+08 	 3.333333e-01
1.20138836e+06 	 1.744146e+01 	 3.023281e+08 	 1.236156e+04 	 1.474097e+09 	 1.303797e+22 	 1.733746e+07 	 1.367573e+39 	 8.943031e+38 	 3.743090e+22 	 7.870087e+08 	 3.333333e-01
1.20141894e+06 	 1.761171e+01 	 3.021297e+08 	 1.224136e+04 	 1.472164e+09 	 1.296316e+22 	 1.715855e+07 	 1.367464e+39 	 8.942437e+38 	 3.722493e+22 	 7.800222e+08 	 3.333333e-01
1.20144960e+06 	 1.778362e+01 	 3.019318e+08 	 1.212233e+04 	 1.470235e+09 	 1.288890e+22 	 1.698151e+07 	 1.367354e+39 	 8.941840e+38 	 3.702041e+22 	 7.730967e+08 	 3.333333e-01
1.20148034e+06 	 1.795720e+01 	 3.017343e+08 	 1.200445e+04 	 1.468312e+09 	 1.281519e+22 	 1.680631e+07 	 1.367244e+39 	 8.941239e+38 	 3.681736e+22 	 7.662316e+08 	 3.333333e-01
1.20151114e+06 	 1.813247e+01 	 3.015372e+08 	 1.188772e+04 	 1.466395e+09 	 1.274203e+22 	 1.663293e+07 	 1.367133e+39 	 8.940636e+38 	 3.661574e+22 	 7.594263e+08 	 3.333333e-01
1.20154202e+06 	 1.830946e+01 	 3.013405e+08 	 1.177213e+04 	 1.464483e+09 	 1.266941e+22 	 1.646137e+07 	 1.367021e+39 	 8.940029e+38 	 3.641556e+22 	 7.526805e+08 	 3.333333e-01
1.20157297e+06 	 1.848816e+01 	 3.011443e+08 	 1.165766e+04 	 1.462576e+09 	 1.259733e+22 	 1.629159e+07 	 1.366909e+39 	 8.939418e+38 	 3.621679e+22 	 7.459935e+08 	 3.333333e-01
1.20160399e+06 	 1.866861e+01 	 3.009484e+08 	 1.154430e+04 	 1.460674e+09 	 1.252578e+22 	 1.612358e+07 	 1.366797e+39 	 8.938805e+38 	 3.601944e+22 	 7.393649e+08 	 3.333333e-01
1.20163509e+06 	 1.885082e+01 	 3.007530e+08 	 1.143204e+04 	 1.458778e+09 	 1.245477e+22 	 1.595733e+07 	 1.366684e+39 	 8.938188e+38 	 3.582347e+22 	 7.327942e+08 	 3.333333e-01
1.20166626e+06 	 1.903481e+01 	 3.005580e+08 	 1.132088e+04 	 1.456886e+09 	 1.238427e+22 	 1.579280e+07 	 1.366570e+39 	 8.937568e+38 	 3.562889e+22 	 7.262809e+08 	 3.333333e-01
1.20169751e+06 	 1.922058e+01 	 3.003634e+08 	 1.121080e+04 	 1.455001e+09 	 1.231430e+22 	 1.562999e+07 	 1.366456e+39 	 8.936944e+38 	 3.543567e+22 	 7.198245e+08 	 3.333333e-01
1.20172884e+06 	 1.940817e+01 	 3.001692e+08 	 1.110179e+04 	 1.453120e+09 	 1.224484e+22 	 1.546887e+07 	 1.366341e+39 	 8.936318e+38 	 3.524381e+22 	 7.134245e+08 	 3.333333e-01
1.20176024e+06 	 1.959759e+01 	 2.999754e+08 	 1.099383e+04 	 1.451244e+09 	 1.217588e+22 	 1.530943e+07 	 1.366226e+39 	 8.935687e+38 	 3.505329e+22 	 7.070804e+08 	 3.333333e-01
1.20179172e+06 	 1.978885e+01 	 2.997821e+08 	 1.088693e+04 	 1.449374e+09 	 1.210744e+22 	 1.515166e+07 	 1.366110e+39 	 8.935054e+38 	 3.486411e+22 	 7.007919e+08 	 3.333333e-01
1.20182329e+06 	 1.998197e+01 	 2.995891e+08 	 1.078107e+04 	 1.447508e+09 	 1.203949e+22 	 1.499552e+07 	 1.365994e+39 	 8.934417e+38 	 3.467625e+22 	 6.945583e+08 	 3.333333e-01
1.20185493e+06 	 2.017698e+01 	 2.993965e+08 	 1.067624e+04 	 1.445648e+09 	 1.197204e+22 	 1.484101e+07 	 1.365877e+39 	 8.933776e+38 	 3.448970e+22 	 6.883792e+08 	 3.333333e-01
1.20188665e+06 	 2.037389e+01 	 2.992044e+08 	 1.057242e+04 	 1.443793e+09 	 1.190508e+22 	 1.468811e+07 	 1.365760e+39 	 8.933132e+38 	 3.430446e+22 	 6.822542e+08 	 3.333333e-01
1.20191844e+06 	 2.057271e+01 	 2.990126e+08 	 1.046962e+04 	 1.441943e+09 	 1.183861e+22 	 1.453680e+07 	 1.365641e+39 	 8.932485e+38 	 3.412050e+22 	 6.761828e+08 	 3.333333e-01
1.20195032e+06 	 2.077347e+01 	 2.988212e+08 	 1.036781e+04 	 1.440098e+09 	 1.177263e+22 	 1.438706e+07 	 1.365523e+39 	 8.931834e+38 	 3.393784e+22 	 6.701644e+08 	 3.333333e-01
1.20198226e+06 	 2.097619e+01 	 2.986303e+08 	 1.026700e+04 	 1.438258e+09 	 1.170713e+22 	 1.423889e+07 	 1.365403e+39 	 8.931179e+38 	 3.375645e+22 	 6.641987e+08 	 3.333333e-01
1.20201430e+06 	 2.118089e+01 	 2.984397e+08 	 1.016716e+04 	 1.436423e+09 	 1.164210e+22 	 1.409225e+07 	 1.365284e+39 	 8.930521e+38 	 3.357631e+22 	 6.582853e+08 	 3.333333e-01
1.20204642e+06 	 2.138757e+01 	 2.982496e+08 	 1.006830e+04 	 1.434593e+09 	 1.157755e+22 	 1.394714e+07 	 1.365163e+39 	 8.929859e+38 	 3.339742e+22 	 6.524237e+08 	 3.333333e-01
1.20207862e+06 	 2.159628e+01 	 2.980598e+08 	 9.970396e+03 	 1.432768e+09 	 1.151346e+22 	 1.380354e+07 	 1.365042e+39 	 8.929194e+38 	 3.321977e+22 	 6.466134e+08 	 3.333333e-01
1.20211090e+06 	 2.180701e+01 	 2.978705e+08 	 9.873446e+03 	 1.430948e+09 	 1.144983e+22 	 1.366143e+07 	 1.364920e+39 	 8.928525e+38 	 3.304334e+22 	 6.408540e+08 	 3.333333e-01
1.20214327e+06 	 2.201980e+01 	 2.976815e+08 	 9.777438e+03 	 1.429133e+09 	 1.138666e+22 	 1.352080e+07 	 1.364798e+39 	 8.927853e+38 	 3.286813e+22 	 6.351450e+08 	 3.333333e-01
1.20217572e+06 	 2.223466e+01 	 2.974929e+08 	 9.682364e+03 	 1.427323e+09 	 1.132395e+22 	 1.338163e+07 	 1.364675e+39 	 8.927176e+38 	 3.269412e+22 	 6.294861e+08 	 3.333333e-01
1.20220826e+06 	 2.245161e+01 	 2.973047e+08 	 9.588214e+03 	 1.425518e+09 	 1.126169e+22 	 1.324391e+07 	 1.364552e+39 	 8.926496e+38 	 3.252131e+22 	 6.238768e+08 	 3.333333e-01
1.20224088e+06 	 2.267068e+01 	 2.971169e+08 	 9.494979e+03 	 1.423718e+09 	 1.119987e+22 	 1.310762e+07 	 1.364428e+39 	 8.925813e+38 	 3.234969e+22 	 6.183167e+08 	 3.333333e-01
1.20227358e+06 	 2.289188e+01 	 2.969295e+08 	 9.402652e+03 	 1.421922e+09 	 1.113850e+22 	 1.297275e+07 	 1.364303e+39 	 8.925125e+38 	 3.217924e+22 	 6.128053e+08 	 3.333333e-01
1.20230637e+06 	 2.311523e+01 	 2.967425e+08 	 9.311222e+03 	 1.420131e+09 	 1.107757e+22 	 1.283928e+07 	 1.364178e+39 	 8.924434e+38 	 3.200997e+22 	 6.073423e+08 	 3.333333e-01
1.20233925e+06 	 2.334077e+01 	 2.965559e+08 	 9.220681e+03 	 1.418346e+09 	 1.101708e+22 	 1.270720e+07 	 1.364052e+39 	 8.923739e+38 	 3.184186e+22 	 6.019272e+08 	 3.333333e-01
1.20237221e+06 	 2.356849e+01 	 2.963696e+08 	 9.131021e+03 	 1.416565e+09 	 1.095701e+22 	 1.257649e+07 	 1.363925e+39 	 8.923040e+38 	 3.167489e+22 	 5.965596e+08 	 3.333333e-01
1.20240526e+06 	 2.379844e+01 	 2.961837e+08 	 9.042232e+03 	 1.414788e+09 	 1.089738e+22 	 1.244713e+07 	 1.363798e+39 	 8.922337e+38 	 3.150906e+22 	 5.912391e+08 	 3.333333e-01
1.20243840e+06 	 2.403062e+01 	 2.959983e+08 	 8.954307e+03 	 1.413017e+09 	 1.083817e+22 	 1.231912e+07 	 1.363670e+39 	 8.921631e+38 	 3.134436e+22 	 5.859653e+08 	 3.333333e-01
1.20247163e+06 	 2.426507e+01 	 2.958131e+08 	 8.867236e+03 	 1.411250e+09 	 1.077938e+22 	 1.219244e+07 	 1.363542e+39 	 8.920920e+38 	 3.118077e+22 	 5.807378e+08 	 3.333333e-01
1.20250496e+06 	 2.450180e+01 	 2.956284e+08 	 8.781013e+03 	 1.409488e+09 	 1.072101e+22 	 1.206708e+07 	 1.363412e+39 	 8.920206e+38 	 3.101830e+22 	 5.755562e+08 	 3.333333e-01
1.20253837e+06 	 2.474083e+01 	 2.954441e+08 	 8.695628e+03 	 1.407731e+09 	 1.066305e+22 	 1.194302e+07 	 1.363283e+39 	 8.919487e+38 	 3.085692e+22 	 5.704202e+08 	 3.333333e-01
1.20257187e+06 	 2.498220e+01 	 2.952601e+08 	 8.611073e+03 	 1.405978e+09 	 1.060550e+22 	 1.182024e+07 	 1.363152e+39 	 8.918765e+38 	 3.069664e+22 	 5.653292e+08 	 3.333333e-01
1.20260547e+06 	 2.522591e+01 	 2.950765e+08 	 8.527340e+03 	 1.404230e+09 	 1.054835e+22 	 1.169874e+07 	 1.363021e+39 	 8.918039e+38 	 3.053744e+22 	 5.602830e+08 	 3.333333e-01
1.20263915e+06 	 2.547199e+01 	 2.948933e+08 	 8.444421e+03 	 1.402487e+09 	 1.049161e+22 	 1.157851e+07 	 1.362889e+39 	 8.917308e+38 	 3.037931e+22 	 5.552812e+08 	 3.333333e-01
1.20267293e+06 	 2.572048e+01 	 2.947104e+08 	 8.362309e+03 	 1.400748e+09 	 1.043527e+22 	 1.145952e+07 	 1.362757e+39 	 8.916574e+38 	 3.022225e+22 	 5.503233e+08 	 3.333333e-01
1.20270680e+06 	 2.597138e+01 	 2.945279e+08 	 8.280995e+03 	 1.399014e+09 	 1.037933e+22 	 1.134176e+07 	 1.362624e+39 	 8.915835e+38 	 3.006626e+22 	 5.454089e+08 	 3.333333e-01
1.20274076e+06 	 2.622472e+01 	 2.943458e+08 	 8.200472e+03 	 1.397285e+09 	 1.032378e+22 	 1.122523e+07 	 1.362490e+39 	 8.915093e+38 	 2.991130e+22 	 5.405378e+08 	 3.333333e-01
1.20277482e+06 	 2.648053e+01 	 2.941641e+08 	 8.120732e+03 	 1.395560e+09 	 1.026862e+22 	 1.110991e+07 	 1.362355e+39 	 8.914346e+38 	 2.975739e+22 	 5.357096e+08 	 3.333333e-01
1.20280897e+06 	 2.673884e+01 	 2.939827e+08 	 8.041767e+03 	 1.393839e+09 	 1.021385e+22 	 1.099578e+07 	 1.362220e+39 	 8.913595e+38 	 2.960451e+22 	 5.309238e+08 	 3.333333e-01
1.20284322e+06 	 2.699965e+01 	 2.938017e+08 	 7.963571e+03 	 1.392123e+09 	 1.015946e+22 	 1.088284e+07 	 1.362084e+39 	 8.912840e+38 	 2.945264e+22 	 5.261801e+08 	 3.333333e-01
1.20287757e+06 	 2.726301e+01 	 2.936211e+08 	 7.886134e+03 	 1.390412e+09 	 1.010544e+22 	 1.077106e+07 	 1.361948e+39 	 8.912081e+38 	 2.930179e+22 	 5.214782e+08 	 3.333333e-01
1.20291202e+06 	 2.752893e+01 	 2.934408e+08 	 7.809450e+03 	 1.388705e+09 	 1.005180e+22 	 1.066045e+07 	 1.361810e+39 	 8.911318e+38 	 2.915194e+22 	 5.168177e+08 	 3.333333e-01
1.20294657e+06 	 2.779744e+01 	 2.932609e+08 	 7.733513e+03 	 1.387003e+09 	 9.998537e+21 	 1.055099e+07 	 1.361672e+39 	 8.910550e+38 	 2.900309e+22 	 5.121982e+08 	 3.333333e-01
1.20298121e+06 	 2.806856e+01 	 2.930813e+08 	 7.658313e+03 	 1.385305e+09 	 9.945641e+21 	 1.044266e+07 	 1.361534e+39 	 8.909778e+38 	 2.885522e+22 	 5.076195e+08 	 3.333333e-01
1.20301596e+06 	 2.834232e+01 	 2.929021e+08 	 7.583845e+03 	 1.383611e+09 	 9.893111e+21 	 1.033545e+07 	 1.361394e+39 	 8.909001e+38 	 2.870833e+22 	 5.030810e+08 	 3.333333e-01
1.20305080e+06 	 2.861874e+01 	 2.927233e+08 	 7.510101e+03 	 1.381922e+09 	 9.840945e+21 	 1.022935e+07 	 1.361254e+39 	 8.908221e+38 	 2.856242e+22 	 4.985825e+08 	 3.333333e-01
1.20308575e+06 	 2.889786e+01 	 2.925448e+08 	 7.437074e+03 	 1.380237e+09 	 9.789141e+21 	 1.012436e+07 	 1.361113e+39 	 8.907436e+38 	 2.841748e+22 	 4.941237e+08 	 3.333333e-01
1.20312078e+06 	 2.917969e+01 	 2.923667e+08 	 7.364757e+03 	 1.378557e+09 	 9.737697e+21 	 1.002045e+07 	 1.360972e+39 	 8.906646e+38 	 2.827350e+22 	 4.897041e+08 	 3.333333e-01
1.20315593e+06 	 2.946427e+01 	 2.921889e+08 	 7.293143e+03 	 1.376881e+09 	 9.686605e+21 	 9.917617e+06 	 1.360830e+39 	 8.905852e+38 	 2.813046e+22 	 4.853235e+08 	 3.333333e-01
1.20319117e+06 	 2.975162e+01 	 2.920115e+08 	 7.222226e+03 	 1.375210e+09 	 9.635864e+21 	 9.815851e+06 	 1.360686e+39 	 8.905054e+38 	 2.798836e+22 	 4.809815e+08 	 3.333333e-01
1.20322653e+06 	 3.004176e+01 	 2.918344e+08 	 7.151998e+03 	 1.373542e+09 	 9.585471e+21 	 9.715140e+06 	 1.360543e+39 	 8.904251e+38 	 2.784719e+22 	 4.766778e+08 	 3.333333e-01
1.20326198e+06 	 3.033472e+01 	 2.916577e+08 	 7.082453e+03 	 1.371879e+09 	 9.535422e+21 	 9.615472e+06 	 1.360398e+39 	 8.903444e+38 	 2.770695e+22 	 4.724121e+08 	 3.333333e-01
1.20329754e+06 	 3.063054e+01 	 2.914813e+08 	 7.013584e+03 	 1.370220e+09 	 9.485716e+21 	 9.516836e+06 	 1.360253e+39 	 8.902632e+38 	 2.756763e+22 	 4.681840e+08 	 3.333333e-01
1.20333321e+06 	 3.092924e+01 	 2.913053e+08 	 6.945385e+03 	 1.368566e+09 	 9.436348e+21 	 9.419222e+06 	 1.360107e+39 	 8.901816e+38 	 2.742921e+22 	 4.639932e+08 	 3.333333e-01
1.20336899e+06 	 3.123084e+01 	 2.911296e+08 	 6.877849e+03 	 1.366916e+09 	 9.387317e+21 	 9.322619e+06 	 1.359960e+39 	 8.900995e+38 	 2.729170e+22 	 4.598394e+08 	 3.333333e-01
1.20340487e+06 	 3.153538e+01 	 2.909542e+08 	 6.810970e+03 	 1.365270e+09 	 9.338619e+21 	 9.227016e+06 	 1.359813e+39 	 8.900169e+38 	 2.715508e+22 	 4.557223e+08 	 3.333333e-01
1.20344087e+06 	 3.184288e+01 	 2.907792e+08 	 6.744742e+03 	 1.363628e+09 	 9.290252e+21 	 9.132403e+06 	 1.359664e+39 	 8.899339e+38 	 2.701934e+22 	 4.516415e+08 	 3.333333e-01
1.20347696e+06 	 3.215337e+01 	 2.906046e+08 	 6.679157e+03 	 1.361990e+09 	 9.242214e+21 	 9.038769e+06 	 1.359515e+39 	 8.898504e+38 	 2.688450e+22 	 4.475967e+08 	 3.333333e-01
1.20351317e+06 	 3.246688e+01 	 2.904303e+08 	 6.614210e+03 	 1.360357e+09 	 9.194502e+21 	 8.946105e+06 	 1.359365e+39 	 8.897664e+38 	 2.675053e+22 	 4.435877e+08 	 3.333333e-01
1.20354948e+06 	 3.278344e+01 	 2.902563e+08 	 6.549894e+03 	 1.358727e+09 	 9.147113e+21 	 8.854399e+06 	 1.359215e+39 	 8.896820e+38 	 2.661742e+22 	 4.396141e+08 	 3.333333e-01
1.20358591e+06 	 3.310309e+01 	 2.900826e+08 	 6.486204e+03 	 1.357102e+09 	 9.100043e+21 	 8.763643e+06 	 1.359063e+39 	 8.895970e+38 	 2.648518e+22 	 4.356756e+08 	 3.333333e-01
1.20362245e+06 	 3.342584e+01 	 2.899093e+08 	 6.423133e+03 	 1.355481e+09 	 9.053290e+21 	 8.673826e+06 	 1.358911e+39 	 8.895116e+38 	 2.635378e+22 	 4.317719e+08 	 3.333333e-01
1.20365910e+06 	 3.375173e+01 	 2.897364e+08 	 6.360676e+03 	 1.353864e+09 	 9.006851e+21 	 8.584938e+06 	 1.358758e+39 	 8.894258e+38 	 2.622323e+22 	 4.279027e+08 	 3.333333e-01
1.20369586e+06 	 3.408080e+01 	 2.895637e+08 	 6.298825e+03 	 1.352251e+09 	 8.960723e+21 	 8.496970e+06 	 1.358604e+39 	 8.893394e+38 	 2.609352e+22 	 4.240677e+08 	 3.333333e-01
1.20373275e+06 	 3.441306e+01 	 2.893914e+08 	 6.237577e+03 	 1.350642e+09 	 8.914903e+21 	 8.409911e+06 	 1.358449e+39 	 8.892525e+38 	 2.596463e+22 	 4.202666e+08 	 3.333333e-01
1.20376974e+06 	 3.474855e+01 	 2.892194e+08 	 6.176923e+03 	 1.349037e+09 	 8.869389e+21 	 8.323753e+06 	 1.358294e+39 	 8.891652e+38 	 2.583657e+22 	 4.164992e+08 	 3.333333e-01
1.20380686e+06 	 3.508731e+01 	 2.890478e+08 	 6.116860e+03 	 1.347437e+09 	 8.824179e+21 	 8.238486e+06 	 1.358138e+39 	 8.890773e+38 	 2.570933e+22 	 4.127651e+08 	 3.333333e-01
1.20384409e+06 	 3.542937e+01 	 2.888764e+08 	 6.057381e+03 	 1.345840e+09 	 8.779269e+21 	 8.154100e+06 	 1.357981e+39 	 8.889890e+38 	 2.558290e+22 	 4.090640e+08 	 3.333333e-01
1.20388144e+06 	 3.577475e+01 	 2.887054e+08 	 5.998480e+03 	 1.344247e+09 	 8.734659e+21 	 8.070587e+06 	 1.357823e+39 	 8.889001e+38 	 2.545727e+22 	 4.053957e+08 	 3.333333e-01
