r (cm)      	T (K)       	rho (g/cm3) 	P (dyne/cm2) 	u (cm/s)    	cs (cm/s)   	phi         	L (erg/s)   	L* (erg/s)  	taus        	lambda     
3.604405e+06 	1.912726e+07 	2.956045e-05 	3.397147e+14 	3.443827e+07 	3.443831e+07 	2.000000e+00 	3.091208e+38 	2.811059e+38 	1.998760e+01 	3.315460e-01 	sonic point
3.624759e+06 	1.901613e+07 	2.901315e-05 	3.319385e+14 	3.468525e+07 	3.433813e+07 	2.000101e+00 	3.089388e+38 	2.810976e+38 	1.973444e+01 	3.315062e-01 	
3.645229e+06 	1.890584e+07 	2.847695e-05 	3.243540e+14 	3.493287e+07 	3.423840e+07 	2.000403e+00 	3.087579e+38 	2.810893e+38 	1.948511e+01 	3.314656e-01 	
3.665814e+06 	1.879637e+07 	2.795163e-05 	3.169562e+14 	3.518111e+07 	3.413913e+07 	2.000904e+00 	3.085784e+38 	2.810811e+38 	1.923956e+01 	3.314243e-01 	
3.686515e+06 	1.868772e+07 	2.743692e-05 	3.097401e+14 	3.542996e+07 	3.404032e+07 	2.001601e+00 	3.084000e+38 	2.810730e+38 	1.899770e+01 	3.313822e-01 	
3.707333e+06 	1.857987e+07 	2.693261e-05 	3.027010e+14 	3.567943e+07 	3.394195e+07 	2.002493e+00 	3.082229e+38 	2.810649e+38 	1.875949e+01 	3.313394e-01 	
3.728269e+06 	1.847283e+07 	2.643846e-05 	2.958343e+14 	3.592950e+07 	3.384404e+07 	2.003577e+00 	3.080470e+38 	2.810569e+38 	1.852486e+01 	3.312958e-01 	
3.749323e+06 	1.836658e+07 	2.595425e-05 	2.891356e+14 	3.618017e+07 	3.374656e+07 	2.004851e+00 	3.078722e+38 	2.810490e+38 	1.829374e+01 	3.312513e-01 	
3.770496e+06 	1.826111e+07 	2.547975e-05 	2.826003e+14 	3.643143e+07 	3.364954e+07 	2.006313e+00 	3.076987e+38 	2.810412e+38 	1.806607e+01 	3.312061e-01 	
3.791788e+06 	1.815643e+07 	2.501477e-05 	2.762243e+14 	3.668327e+07 	3.355295e+07 	2.007961e+00 	3.075263e+38 	2.810334e+38 	1.784179e+01 	3.311600e-01 	
3.813201e+06 	1.805251e+07 	2.455908e-05 	2.700034e+14 	3.693570e+07 	3.345679e+07 	2.009794e+00 	3.073552e+38 	2.810256e+38 	1.762086e+01 	3.311131e-01 	
3.834734e+06 	1.794937e+07 	2.411249e-05 	2.639337e+14 	3.718869e+07 	3.336107e+07 	2.011809e+00 	3.071851e+38 	2.810180e+38 	1.740320e+01 	3.310654e-01 	
3.856390e+06 	1.784698e+07 	2.367480e-05 	2.580111e+14 	3.744225e+07 	3.326579e+07 	2.014004e+00 	3.070163e+38 	2.810104e+38 	1.718876e+01 	3.310168e-01 	
3.878167e+06 	1.774534e+07 	2.324581e-05 	2.522320e+14 	3.769636e+07 	3.317093e+07 	2.016378e+00 	3.068486e+38 	2.810028e+38 	1.697748e+01 	3.309673e-01 	
3.900068e+06 	1.764445e+07 	2.282534e-05 	2.465926e+14 	3.795102e+07 	3.307650e+07 	2.018929e+00 	3.066820e+38 	2.809953e+38 	1.676932e+01 	3.309170e-01 	
3.922092e+06 	1.754430e+07 	2.241320e-05 	2.410892e+14 	3.820623e+07 	3.298249e+07 	2.021655e+00 	3.065165e+38 	2.809879e+38 	1.656422e+01 	3.308657e-01 	
3.944240e+06 	1.744488e+07 	2.200922e-05 	2.357185e+14 	3.846197e+07 	3.288891e+07 	2.024553e+00 	3.063521e+38 	2.809805e+38 	1.636213e+01 	3.308136e-01 	
3.966514e+06 	1.734619e+07 	2.161321e-05 	2.304770e+14 	3.871824e+07 	3.279574e+07 	2.027624e+00 	3.061889e+38 	2.809732e+38 	1.616300e+01 	3.307606e-01 	
3.988913e+06 	1.724821e+07 	2.122500e-05 	2.253614e+14 	3.897503e+07 	3.270299e+07 	2.030864e+00 	3.060267e+38 	2.809660e+38 	1.596677e+01 	3.307066e-01 	
4.011439e+06 	1.715095e+07 	2.084443e-05 	2.203684e+14 	3.923233e+07 	3.261066e+07 	2.034272e+00 	3.058657e+38 	2.809588e+38 	1.577339e+01 	3.306517e-01 	
4.034092e+06 	1.705440e+07 	2.047134e-05 	2.154950e+14 	3.949014e+07 	3.251874e+07 	2.037846e+00 	3.057057e+38 	2.809516e+38 	1.558283e+01 	3.305959e-01 	
4.056873e+06 	1.695855e+07 	2.010555e-05 	2.107381e+14 	3.974845e+07 	3.242722e+07 	2.041585e+00 	3.055468e+38 	2.809445e+38 	1.539503e+01 	3.305391e-01 	
4.079783e+06 	1.686339e+07 	1.974693e-05 	2.060947e+14 	4.000725e+07 	3.233612e+07 	2.045488e+00 	3.053890e+38 	2.809375e+38 	1.520995e+01 	3.304813e-01 	
4.102822e+06 	1.676892e+07 	1.939531e-05 	2.015619e+14 	4.026653e+07 	3.224542e+07 	2.049552e+00 	3.052322e+38 	2.809305e+38 	1.502754e+01 	3.304225e-01 	
4.125991e+06 	1.667513e+07 	1.905054e-05 	1.971370e+14 	4.052629e+07 	3.215512e+07 	2.053776e+00 	3.050764e+38 	2.809236e+38 	1.484775e+01 	3.303628e-01 	
4.149291e+06 	1.658202e+07 	1.871249e-05 	1.928172e+14 	4.078652e+07 	3.206522e+07 	2.058159e+00 	3.049217e+38 	2.809167e+38 	1.467054e+01 	3.303020e-01 	
4.172722e+06 	1.648958e+07 	1.838100e-05 	1.885998e+14 	4.104721e+07 	3.197572e+07 	2.062698e+00 	3.047680e+38 	2.809099e+38 	1.449588e+01 	3.302402e-01 	
4.196286e+06 	1.639781e+07 	1.805594e-05 	1.844822e+14 	4.130835e+07 	3.188661e+07 	2.067394e+00 	3.046154e+38 	2.809031e+38 	1.432371e+01 	3.301774e-01 	
4.219983e+06 	1.630669e+07 	1.773718e-05 	1.804620e+14 	4.156994e+07 	3.179790e+07 	2.072243e+00 	3.044637e+38 	2.808963e+38 	1.415400e+01 	3.301135e-01 	
4.243814e+06 	1.621623e+07 	1.742457e-05 	1.765367e+14 	4.183196e+07 	3.170958e+07 	2.077245e+00 	3.043131e+38 	2.808897e+38 	1.398671e+01 	3.300486e-01 	
4.267779e+06 	1.612642e+07 	1.711800e-05 	1.727038e+14 	4.209442e+07 	3.162164e+07 	2.082398e+00 	3.041634e+38 	2.808830e+38 	1.382179e+01 	3.299826e-01 	
4.291880e+06 	1.603725e+07 	1.681733e-05 	1.689611e+14 	4.235730e+07 	3.153410e+07 	2.087701e+00 	3.040148e+38 	2.808764e+38 	1.365921e+01 	3.299156e-01 	
4.316116e+06 	1.594872e+07 	1.652244e-05 	1.653063e+14 	4.262059e+07 	3.144694e+07 	2.093153e+00 	3.038671e+38 	2.808699e+38 	1.349893e+01 	3.298474e-01 	
4.340490e+06 	1.586082e+07 	1.623321e-05 	1.617372e+14 	4.288429e+07 	3.136016e+07 	2.098751e+00 	3.037204e+38 	2.808634e+38 	1.334091e+01 	3.297781e-01 	
4.365001e+06 	1.577354e+07 	1.594952e-05 	1.582517e+14 	4.314838e+07 	3.127376e+07 	2.104496e+00 	3.035747e+38 	2.808569e+38 	1.318511e+01 	3.297077e-01 	
4.389651e+06 	1.568689e+07 	1.567125e-05 	1.548477e+14 	4.341287e+07 	3.118773e+07 	2.110384e+00 	3.034299e+38 	2.808505e+38 	1.303150e+01 	3.296362e-01 	
4.414440e+06 	1.560085e+07 	1.539830e-05 	1.515231e+14 	4.367774e+07 	3.110209e+07 	2.116416e+00 	3.032861e+38 	2.808442e+38 	1.288005e+01 	3.295635e-01 	
4.439369e+06 	1.551542e+07 	1.513055e-05 	1.482760e+14 	4.394299e+07 	3.101682e+07 	2.122590e+00 	3.031432e+38 	2.808379e+38 	1.273071e+01 	3.294897e-01 	
4.464438e+06 	1.543059e+07 	1.486789e-05 	1.451044e+14 	4.420860e+07 	3.093191e+07 	2.128904e+00 	3.030013e+38 	2.808316e+38 	1.258345e+01 	3.294147e-01 	
4.489649e+06 	1.534637e+07 	1.461023e-05 	1.420065e+14 	4.447457e+07 	3.084738e+07 	2.135358e+00 	3.028603e+38 	2.808254e+38 	1.243825e+01 	3.293385e-01 	
4.515003e+06 	1.526274e+07 	1.435745e-05 	1.389804e+14 	4.474090e+07 	3.076322e+07 	2.141950e+00 	3.027202e+38 	2.808192e+38 	1.229506e+01 	3.292611e-01 	
4.540500e+06 	1.517970e+07 	1.410945e-05 	1.360244e+14 	4.500756e+07 	3.067942e+07 	2.148679e+00 	3.025810e+38 	2.808130e+38 	1.215386e+01 	3.291825e-01 	
4.566140e+06 	1.509725e+07 	1.386614e-05 	1.331367e+14 	4.527456e+07 	3.059598e+07 	2.155543e+00 	3.024428e+38 	2.808069e+38 	1.201461e+01 	3.291027e-01 	
4.591926e+06 	1.501537e+07 	1.362742e-05 	1.303157e+14 	4.554189e+07 	3.051290e+07 	2.162542e+00 	3.023054e+38 	2.808008e+38 	1.187729e+01 	3.290216e-01 	
4.617857e+06 	1.493407e+07 	1.339320e-05 	1.275597e+14 	4.580953e+07 	3.043019e+07 	2.169675e+00 	3.021690e+38 	2.807948e+38 	1.174185e+01 	3.289393e-01 	
4.643935e+06 	1.485335e+07 	1.316338e-05 	1.248671e+14 	4.607748e+07 	3.034783e+07 	2.176939e+00 	3.020334e+38 	2.807888e+38 	1.160828e+01 	3.288558e-01 	
4.670160e+06 	1.477318e+07 	1.293787e-05 	1.222363e+14 	4.634574e+07 	3.026582e+07 	2.184335e+00 	3.018987e+38 	2.807829e+38 	1.147653e+01 	3.287709e-01 	
4.696532e+06 	1.469358e+07 	1.271659e-05 	1.196659e+14 	4.661429e+07 	3.018417e+07 	2.191860e+00 	3.017649e+38 	2.807769e+38 	1.134659e+01 	3.286848e-01 	
4.723054e+06 	1.461453e+07 	1.249944e-05 	1.171543e+14 	4.688313e+07 	3.010287e+07 	2.199514e+00 	3.016319e+38 	2.807711e+38 	1.121842e+01 	3.285974e-01 	
4.749726e+06 	1.453604e+07 	1.228636e-05 	1.147002e+14 	4.715224e+07 	3.002192e+07 	2.207296e+00 	3.014998e+38 	2.807652e+38 	1.109200e+01 	3.285086e-01 	
4.776548e+06 	1.445809e+07 	1.207724e-05 	1.123021e+14 	4.742162e+07 	2.994132e+07 	2.215205e+00 	3.013686e+38 	2.807594e+38 	1.096730e+01 	3.284185e-01 	
4.803522e+06 	1.438068e+07 	1.187202e-05 	1.099586e+14 	4.769126e+07 	2.986106e+07 	2.223239e+00 	3.012382e+38 	2.807537e+38 	1.084429e+01 	3.283271e-01 	
4.830648e+06 	1.430381e+07 	1.167061e-05 	1.076684e+14 	4.796116e+07 	2.978114e+07 	2.231398e+00 	3.011087e+38 	2.807479e+38 	1.072294e+01 	3.282343e-01 	
4.857927e+06 	1.422748e+07 	1.147294e-05 	1.054303e+14 	4.823130e+07 	2.970157e+07 	2.239680e+00 	3.009800e+38 	2.807422e+38 	1.060323e+01 	3.281402e-01 	
4.885360e+06 	1.415167e+07 	1.127893e-05 	1.032429e+14 	4.850167e+07 	2.962233e+07 	2.248084e+00 	3.008521e+38 	2.807366e+38 	1.048514e+01 	3.280447e-01 	
4.912949e+06 	1.407639e+07 	1.108850e-05 	1.011051e+14 	4.877228e+07 	2.954344e+07 	2.256610e+00 	3.007250e+38 	2.807309e+38 	1.036863e+01 	3.279477e-01 	
4.940693e+06 	1.400162e+07 	1.090159e-05 	9.901559e+13 	4.904310e+07 	2.946488e+07 	2.265256e+00 	3.005988e+38 	2.807253e+38 	1.025368e+01 	3.278494e-01 	
4.968593e+06 	1.392738e+07 	1.071813e-05 	9.697325e+13 	4.931414e+07 	2.938665e+07 	2.274022e+00 	3.004733e+38 	2.807198e+38 	1.014028e+01 	3.277497e-01 	
4.996652e+06 	1.385364e+07 	1.053804e-05 	9.497695e+13 	4.958537e+07 	2.930876e+07 	2.282905e+00 	3.003487e+38 	2.807142e+38 	1.002839e+01 	3.276485e-01 	
5.024868e+06 	1.378041e+07 	1.036125e-05 	9.302556e+13 	4.985681e+07 	2.923119e+07 	2.291907e+00 	3.002249e+38 	2.807087e+38 	9.917990e+00 	3.275459e-01 	
5.053244e+06 	1.370769e+07 	1.018771e-05 	9.111801e+13 	5.012843e+07 	2.915396e+07 	2.301024e+00 	3.001018e+38 	2.807033e+38 	9.809060e+00 	3.274418e-01 	
5.081780e+06 	1.363546e+07 	1.001735e-05 	8.925324e+13 	5.040022e+07 	2.907705e+07 	2.310257e+00 	2.999796e+38 	2.806978e+38 	9.701576e+00 	3.273362e-01 	
5.110478e+06 	1.356373e+07 	9.850100e-06 	8.743023e+13 	5.067219e+07 	2.900047e+07 	2.319605e+00 	2.998581e+38 	2.806924e+38 	9.595516e+00 	3.272291e-01 	
5.139337e+06 	1.349249e+07 	9.685902e-06 	8.564798e+13 	5.094432e+07 	2.892421e+07 	2.329066e+00 	2.997374e+38 	2.806870e+38 	9.490857e+00 	3.271206e-01 	
5.168360e+06 	1.342173e+07 	9.524695e-06 	8.390551e+13 	5.121660e+07 	2.884827e+07 	2.338640e+00 	2.996175e+38 	2.806817e+38 	9.387578e+00 	3.270105e-01 	
5.197546e+06 	1.335146e+07 	9.366421e-06 	8.220187e+13 	5.148902e+07 	2.877265e+07 	2.348325e+00 	2.994983e+38 	2.806764e+38 	9.285659e+00 	3.268989e-01 	
5.226897e+06 	1.328167e+07 	9.211021e-06 	8.053614e+13 	5.176159e+07 	2.869735e+07 	2.358121e+00 	2.993799e+38 	2.806711e+38 	9.185079e+00 	3.267858e-01 	
5.256414e+06 	1.321235e+07 	9.058438e-06 	7.890742e+13 	5.203428e+07 	2.862236e+07 	2.368027e+00 	2.992622e+38 	2.806658e+38 	9.085816e+00 	3.266711e-01 	
5.286098e+06 	1.314350e+07 	8.908616e-06 	7.731481e+13 	5.230709e+07 	2.854769e+07 	2.378042e+00 	2.991453e+38 	2.806606e+38 	8.987852e+00 	3.265548e-01 	
5.315949e+06 	1.307512e+07 	8.761502e-06 	7.575748e+13 	5.258002e+07 	2.847334e+07 	2.388165e+00 	2.990292e+38 	2.806554e+38 	8.891165e+00 	3.264370e-01 	
5.345969e+06 	1.300721e+07 	8.617043e-06 	7.423457e+13 	5.285304e+07 	2.839929e+07 	2.398396e+00 	2.989137e+38 	2.806502e+38 	8.795738e+00 	3.263176e-01 	
5.376158e+06 	1.293975e+07 	8.475185e-06 	7.274527e+13 	5.312617e+07 	2.832556e+07 	2.408732e+00 	2.987990e+38 	2.806451e+38 	8.701551e+00 	3.261965e-01 	
5.406518e+06 	1.287275e+07 	8.335878e-06 	7.128880e+13 	5.339938e+07 	2.825213e+07 	2.419174e+00 	2.986851e+38 	2.806399e+38 	8.608585e+00 	3.260739e-01 	
5.437049e+06 	1.280620e+07 	8.199073e-06 	6.986436e+13 	5.367267e+07 	2.817900e+07 	2.429721e+00 	2.985718e+38 	2.806349e+38 	8.516822e+00 	3.259496e-01 	
5.467753e+06 	1.274010e+07 	8.064720e-06 	6.847122e+13 	5.394603e+07 	2.810619e+07 	2.440372e+00 	2.984592e+38 	2.806298e+38 	8.426244e+00 	3.258236e-01 	
5.498630e+06 	1.267445e+07 	7.932771e-06 	6.710862e+13 	5.421945e+07 	2.803367e+07 	2.451125e+00 	2.983474e+38 	2.806247e+38 	8.336833e+00 	3.256960e-01 	
5.529681e+06 	1.260924e+07 	7.803181e-06 	6.577586e+13 	5.449293e+07 	2.796146e+07 	2.461980e+00 	2.982363e+38 	2.806197e+38 	8.248571e+00 	3.255668e-01 	
5.560908e+06 	1.254446e+07 	7.675902e-06 	6.447224e+13 	5.476646e+07 	2.788954e+07 	2.472937e+00 	2.981258e+38 	2.806147e+38 	8.161442e+00 	3.254358e-01 	
5.592311e+06 	1.248012e+07 	7.550890e-06 	6.319706e+13 	5.504002e+07 	2.781793e+07 	2.483995e+00 	2.980161e+38 	2.806097e+38 	8.075428e+00 	3.253032e-01 	
5.623891e+06 	1.241621e+07 	7.428101e-06 	6.194966e+13 	5.531362e+07 	2.774661e+07 	2.495152e+00 	2.979070e+38 	2.806048e+38 	7.990513e+00 	3.251688e-01 	
5.655650e+06 	1.235272e+07 	7.307493e-06 	6.072940e+13 	5.558723e+07 	2.767559e+07 	2.506407e+00 	2.977987e+38 	2.805999e+38 	7.906681e+00 	3.250327e-01 	
5.687588e+06 	1.228966e+07 	7.189022e-06 	5.953564e+13 	5.586087e+07 	2.760485e+07 	2.517761e+00 	2.976910e+38 	2.805950e+38 	7.823915e+00 	3.248949e-01 	
5.719707e+06 	1.222702e+07 	7.072649e-06 	5.836776e+13 	5.613450e+07 	2.753441e+07 	2.529212e+00 	2.975839e+38 	2.805901e+38 	7.742199e+00 	3.247553e-01 	
5.752006e+06 	1.216480e+07 	6.958332e-06 	5.722516e+13 	5.640814e+07 	2.746426e+07 	2.540760e+00 	2.974776e+38 	2.805852e+38 	7.661519e+00 	3.246140e-01 	
5.784489e+06 	1.210299e+07 	6.846031e-06 	5.610725e+13 	5.668177e+07 	2.739440e+07 	2.552403e+00 	2.973719e+38 	2.805804e+38 	7.581859e+00 	3.244709e-01 	
5.817154e+06 	1.204160e+07 	6.735709e-06 	5.501346e+13 	5.695538e+07 	2.732483e+07 	2.564141e+00 	2.972669e+38 	2.805756e+38 	7.503204e+00 	3.243260e-01 	
5.850004e+06 	1.198060e+07 	6.627327e-06 	5.394323e+13 	5.722896e+07 	2.725554e+07 	2.575974e+00 	2.971625e+38 	2.805708e+38 	7.425538e+00 	3.241793e-01 	
5.883040e+06 	1.192002e+07 	6.520849e-06 	5.289601e+13 	5.750251e+07 	2.718654e+07 	2.587900e+00 	2.970588e+38 	2.805660e+38 	7.348849e+00 	3.240308e-01 	
5.916262e+06 	1.185983e+07 	6.416237e-06 	5.187128e+13 	5.777602e+07 	2.711782e+07 	2.599918e+00 	2.969557e+38 	2.805613e+38 	7.273120e+00 	3.238804e-01 	
5.949672e+06 	1.180004e+07 	6.313456e-06 	5.086850e+13 	5.804949e+07 	2.704938e+07 	2.612028e+00 	2.968532e+38 	2.805566e+38 	7.198339e+00 	3.237283e-01 	
5.983271e+06 	1.174065e+07 	6.212472e-06 	4.988719e+13 	5.832289e+07 	2.698121e+07 	2.624230e+00 	2.967514e+38 	2.805518e+38 	7.124491e+00 	3.235742e-01 	
6.017059e+06 	1.168164e+07 	6.113250e-06 	4.892684e+13 	5.859623e+07 	2.691333e+07 	2.636522e+00 	2.966502e+38 	2.805472e+38 	7.051563e+00 	3.234184e-01 	
6.051038e+06 	1.162303e+07 	6.015757e-06 	4.798697e+13 	5.886950e+07 	2.684572e+07 	2.648904e+00 	2.965497e+38 	2.805425e+38 	6.979542e+00 	3.232606e-01 	
6.085209e+06 	1.156480e+07 	5.919960e-06 	4.706711e+13 	5.914269e+07 	2.677839e+07 	2.661375e+00 	2.964498e+38 	2.805378e+38 	6.908414e+00 	3.231010e-01 	
6.119573e+06 	1.150695e+07 	5.825826e-06 	4.616680e+13 	5.941579e+07 	2.671133e+07 	2.673934e+00 	2.963504e+38 	2.805332e+38 	6.838166e+00 	3.229394e-01 	
6.154131e+06 	1.144948e+07 	5.733326e-06 	4.528560e+13 	5.968880e+07 	2.664455e+07 	2.686580e+00 	2.962517e+38 	2.805286e+38 	6.768786e+00 	3.227760e-01 	
6.188884e+06 	1.139239e+07 	5.642426e-06 	4.442306e+13 	5.996171e+07 	2.657803e+07 	2.699314e+00 	2.961536e+38 	2.805240e+38 	6.700261e+00 	3.226106e-01 	
6.223833e+06 	1.133567e+07 	5.553099e-06 	4.357877e+13 	6.023450e+07 	2.651179e+07 	2.712133e+00 	2.960562e+38 	2.805194e+38 	6.632578e+00 	3.224433e-01 	
6.258980e+06 	1.127932e+07 	5.465313e-06 	4.275230e+13 	6.050718e+07 	2.644581e+07 	2.725039e+00 	2.959593e+38 	2.805149e+38 	6.565727e+00 	3.222740e-01 	
6.294325e+06 	1.122334e+07 	5.379040e-06 	4.194325e+13 	6.077974e+07 	2.638010e+07 	2.738028e+00 	2.958630e+38 	2.805103e+38 	6.499694e+00 	3.221028e-01 	
6.329870e+06 	1.116772e+07 	5.294252e-06 	4.115123e+13 	6.105216e+07 	2.631465e+07 	2.751102e+00 	2.957673e+38 	2.805058e+38 	6.434468e+00 	3.219296e-01 	
6.365615e+06 	1.111246e+07 	5.210920e-06 	4.037584e+13 	6.132444e+07 	2.624947e+07 	2.764260e+00 	2.956721e+38 	2.805013e+38 	6.370038e+00 	3.217545e-01 	
6.401563e+06 	1.105756e+07 	5.129019e-06 	3.961672e+13 	6.159658e+07 	2.618455e+07 	2.777500e+00 	2.955776e+38 	2.804968e+38 	6.306392e+00 	3.215773e-01 	
6.437713e+06 	1.100302e+07 	5.048520e-06 	3.887348e+13 	6.186856e+07 	2.611989e+07 	2.790822e+00 	2.954836e+38 	2.804924e+38 	6.243519e+00 	3.213982e-01 	
6.474067e+06 	1.094883e+07 	4.969398e-06 	3.814578e+13 	6.214038e+07 	2.605549e+07 	2.804226e+00 	2.953903e+38 	2.804879e+38 	6.181408e+00 	3.212170e-01 	
6.510627e+06 	1.089499e+07 	4.891627e-06 	3.743327e+13 	6.241203e+07 	2.599135e+07 	2.817710e+00 	2.952974e+38 	2.804835e+38 	6.120048e+00 	3.210338e-01 	
6.547393e+06 	1.084150e+07 	4.815182e-06 	3.673559e+13 	6.268351e+07 	2.592747e+07 	2.831275e+00 	2.952052e+38 	2.804790e+38 	6.059429e+00 	3.208486e-01 	
6.584367e+06 	1.078835e+07 	4.740038e-06 	3.605242e+13 	6.295481e+07 	2.586384e+07 	2.844919e+00 	2.951135e+38 	2.804746e+38 	5.999539e+00 	3.206613e-01 	
6.621550e+06 	1.073554e+07 	4.666172e-06 	3.538343e+13 	6.322591e+07 	2.580046e+07 	2.858642e+00 	2.950224e+38 	2.804702e+38 	5.940370e+00 	3.204720e-01 	
6.658943e+06 	1.068308e+07 	4.593560e-06 	3.472831e+13 	6.349682e+07 	2.573734e+07 	2.872443e+00 	2.949318e+38 	2.804659e+38 	5.881910e+00 	3.202806e-01 	
6.696546e+06 	1.063095e+07 	4.522178e-06 	3.408673e+13 	6.376753e+07 	2.567447e+07 	2.886321e+00 	2.948418e+38 	2.804615e+38 	5.824149e+00 	3.200871e-01 	
6.734363e+06 	1.057916e+07 	4.452004e-06 	3.345841e+13 	6.403803e+07 	2.561185e+07 	2.900277e+00 	2.947523e+38 	2.804571e+38 	5.767079e+00 	3.198915e-01 	
6.772392e+06 	1.052769e+07 	4.383016e-06 	3.284303e+13 	6.430830e+07 	2.554948e+07 	2.914308e+00 	2.946634e+38 	2.804528e+38 	5.710688e+00 	3.196938e-01 	
6.810637e+06 	1.047656e+07 	4.315191e-06 	3.224032e+13 	6.457836e+07 	2.548735e+07 	2.928416e+00 	2.945750e+38 	2.804485e+38 	5.654968e+00 	3.194940e-01 	
6.849097e+06 	1.042575e+07 	4.248509e-06 	3.164999e+13 	6.484819e+07 	2.542548e+07 	2.942598e+00 	2.944871e+38 	2.804442e+38 	5.599910e+00 	3.192921e-01 	
6.887775e+06 	1.037527e+07 	4.182949e-06 	3.107177e+13 	6.511778e+07 	2.536384e+07 	2.956855e+00 	2.943998e+38 	2.804399e+38 	5.545503e+00 	3.190881e-01 	
6.926671e+06 	1.032510e+07 	4.118490e-06 	3.050538e+13 	6.538712e+07 	2.530246e+07 	2.971185e+00 	2.943130e+38 	2.804356e+38 	5.491739e+00 	3.188819e-01 	
6.965787e+06 	1.027526e+07 	4.055111e-06 	2.995057e+13 	6.565622e+07 	2.524131e+07 	2.985589e+00 	2.942267e+38 	2.804313e+38 	5.438610e+00 	3.186736e-01 	
7.005123e+06 	1.022573e+07 	3.992794e-06 	2.940707e+13 	6.592505e+07 	2.518040e+07 	3.000066e+00 	2.941410e+38 	2.804271e+38 	5.386105e+00 	3.184631e-01 	
7.044682e+06 	1.017652e+07 	3.931519e-06 	2.887465e+13 	6.619363e+07 	2.511974e+07 	3.014614e+00 	2.940557e+38 	2.804228e+38 	5.334217e+00 	3.182504e-01 	
7.084464e+06 	1.012762e+07 	3.871266e-06 	2.835304e+13 	6.646194e+07 	2.505931e+07 	3.029234e+00 	2.939710e+38 	2.804186e+38 	5.282937e+00 	3.180356e-01 	
7.124471e+06 	1.007903e+07 	3.812018e-06 	2.784202e+13 	6.672997e+07 	2.499912e+07 	3.043925e+00 	2.938868e+38 	2.804144e+38 	5.232257e+00 	3.178186e-01 	
7.164704e+06 	1.003074e+07 	3.753756e-06 	2.734134e+13 	6.699772e+07 	2.493917e+07 	3.058685e+00 	2.938031e+38 	2.804102e+38 	5.182168e+00 	3.175993e-01 	
7.205164e+06 	9.982763e+06 	3.696462e-06 	2.685079e+13 	6.726518e+07 	2.487945e+07 	3.073516e+00 	2.937199e+38 	2.804060e+38 	5.132663e+00 	3.173779e-01 	
7.245852e+06 	9.935085e+06 	3.640119e-06 	2.637015e+13 	6.753234e+07 	2.481997e+07 	3.088416e+00 	2.936371e+38 	2.804018e+38 	5.083733e+00 	3.171542e-01 	
7.286770e+06 	9.887707e+06 	3.584710e-06 	2.589918e+13 	6.779921e+07 	2.476072e+07 	3.103384e+00 	2.935549e+38 	2.803976e+38 	5.035370e+00 	3.169284e-01 	
7.327919e+06 	9.840626e+06 	3.530217e-06 	2.543768e+13 	6.806577e+07 	2.470170e+07 	3.118420e+00 	2.934732e+38 	2.803935e+38 	4.987566e+00 	3.167002e-01 	
7.369301e+06 	9.793841e+06 	3.476624e-06 	2.498545e+13 	6.833202e+07 	2.464291e+07 	3.133524e+00 	2.933920e+38 	2.803893e+38 	4.940315e+00 	3.164699e-01 	
