r (cm)        	 u (cm/s)    	 cs (cm/s)   	 rho (g/cm3) 	 T (K)       	 P (dyne/cm2) 	 phi         	 L (erg/s)   	 L* (erg/s)  	 E (erg)     	 tau        
1.19999952e+06 	 1.552801e+00 	 2.977404e+08 	 6.218393e+04 	 1.429699e+09 	 1.604931e+22 	 1.917299e+08 	 9.231162e+38 	 6.032878e+38 	 3.987910e+22 	 4.033049e+09
1.20001250e+06 	 1.568740e+00 	 2.974159e+08 	 6.155059e+04 	 1.426585e+09 	 1.588976e+22 	 1.895750e+08 	 9.231054e+38 	 6.032842e+38 	 3.950249e+22 	 3.997475e+09
1.20002547e+06 	 1.584843e+00 	 2.970920e+08 	 6.092371e+04 	 1.423479e+09 	 1.573191e+22 	 1.874445e+08 	 9.230947e+38 	 6.032806e+38 	 3.912971e+22 	 3.962209e+09
1.20003844e+06 	 1.601112e+00 	 2.967686e+08 	 6.030320e+04 	 1.420381e+09 	 1.557573e+22 	 1.853380e+08 	 9.230839e+38 	 6.032771e+38 	 3.876070e+22 	 3.927248e+09
1.20005140e+06 	 1.617547e+00 	 2.964457e+08 	 5.968902e+04 	 1.417293e+09 	 1.542122e+22 	 1.832553e+08 	 9.230731e+38 	 6.032735e+38 	 3.839544e+22 	 3.892589e+09
1.20006436e+06 	 1.634151e+00 	 2.961235e+08 	 5.908110e+04 	 1.414213e+09 	 1.526834e+22 	 1.811961e+08 	 9.230623e+38 	 6.032699e+38 	 3.803388e+22 	 3.858231e+09
1.20007731e+06 	 1.650926e+00 	 2.958017e+08 	 5.847936e+04 	 1.411141e+09 	 1.511710e+22 	 1.791602e+08 	 9.230516e+38 	 6.032663e+38 	 3.767599e+22 	 3.824169e+09
1.20009025e+06 	 1.667872e+00 	 2.954806e+08 	 5.788376e+04 	 1.408079e+09 	 1.496746e+22 	 1.771473e+08 	 9.230408e+38 	 6.032627e+38 	 3.732173e+22 	 3.790403e+09
1.20010319e+06 	 1.684993e+00 	 2.951600e+08 	 5.729422e+04 	 1.405025e+09 	 1.481941e+22 	 1.751571e+08 	 9.230300e+38 	 6.032591e+38 	 3.697106e+22 	 3.756928e+09
1.20011613e+06 	 1.702290e+00 	 2.948399e+08 	 5.671068e+04 	 1.401979e+09 	 1.467292e+22 	 1.731894e+08 	 9.230192e+38 	 6.032555e+38 	 3.662393e+22 	 3.723744e+09
1.20012905e+06 	 1.719764e+00 	 2.945204e+08 	 5.613309e+04 	 1.398942e+09 	 1.452799e+22 	 1.712439e+08 	 9.230083e+38 	 6.032518e+38 	 3.628032e+22 	 3.690847e+09
1.20014198e+06 	 1.737417e+00 	 2.942014e+08 	 5.556138e+04 	 1.395914e+09 	 1.438460e+22 	 1.693204e+08 	 9.229975e+38 	 6.032482e+38 	 3.594017e+22 	 3.658235e+09
1.20015490e+06 	 1.755252e+00 	 2.938830e+08 	 5.499549e+04 	 1.392894e+09 	 1.424273e+22 	 1.674186e+08 	 9.229867e+38 	 6.032446e+38 	 3.560347e+22 	 3.625905e+09
1.20016781e+06 	 1.773270e+00 	 2.935651e+08 	 5.443537e+04 	 1.389882e+09 	 1.410235e+22 	 1.655383e+08 	 9.229759e+38 	 6.032409e+38 	 3.527016e+22 	 3.593856e+09
1.20018072e+06 	 1.791472e+00 	 2.932478e+08 	 5.388095e+04 	 1.386879e+09 	 1.396346e+22 	 1.636792e+08 	 9.229650e+38 	 6.032373e+38 	 3.494021e+22 	 3.562084e+09
1.20019363e+06 	 1.809862e+00 	 2.929310e+08 	 5.333218e+04 	 1.383884e+09 	 1.382605e+22 	 1.618411e+08 	 9.229542e+38 	 6.032336e+38 	 3.461360e+22 	 3.530588e+09
1.20020653e+06 	 1.828440e+00 	 2.926148e+08 	 5.278900e+04 	 1.380898e+09 	 1.369008e+22 	 1.600238e+08 	 9.229433e+38 	 6.032300e+38 	 3.429028e+22 	 3.499364e+09
1.20021942e+06 	 1.847209e+00 	 2.922991e+08 	 5.225135e+04 	 1.377920e+09 	 1.355556e+22 	 1.582269e+08 	 9.229324e+38 	 6.032263e+38 	 3.397023e+22 	 3.468412e+09
1.20023231e+06 	 1.866171e+00 	 2.919840e+08 	 5.171917e+04 	 1.374951e+09 	 1.342245e+22 	 1.564504e+08 	 9.229215e+38 	 6.032226e+38 	 3.365341e+22 	 3.437727e+09
1.20024520e+06 	 1.885328e+00 	 2.916694e+08 	 5.119242e+04 	 1.371990e+09 	 1.329075e+22 	 1.546939e+08 	 9.229107e+38 	 6.032189e+38 	 3.333977e+22 	 3.407309e+09
1.20025808e+06 	 1.904681e+00 	 2.913554e+08 	 5.067103e+04 	 1.369037e+09 	 1.316044e+22 	 1.529573e+08 	 9.228998e+38 	 6.032152e+38 	 3.302929e+22 	 3.377155e+09
1.20027095e+06 	 1.924233e+00 	 2.910419e+08 	 5.015495e+04 	 1.366093e+09 	 1.303151e+22 	 1.512402e+08 	 9.228889e+38 	 6.032115e+38 	 3.272193e+22 	 3.347262e+09
1.20028383e+06 	 1.943985e+00 	 2.907290e+08 	 4.964413e+04 	 1.363156e+09 	 1.290393e+22 	 1.495425e+08 	 9.228779e+38 	 6.032078e+38 	 3.241766e+22 	 3.317629e+09
1.20029670e+06 	 1.963941e+00 	 2.904166e+08 	 4.913851e+04 	 1.360228e+09 	 1.277770e+22 	 1.478640e+08 	 9.228670e+38 	 6.032041e+38 	 3.211645e+22 	 3.288253e+09
1.20030956e+06 	 1.984101e+00 	 2.901047e+08 	 4.863804e+04 	 1.357309e+09 	 1.265279e+22 	 1.462044e+08 	 9.228561e+38 	 6.032004e+38 	 3.181826e+22 	 3.259131e+09
1.20032242e+06 	 2.004468e+00 	 2.897934e+08 	 4.814267e+04 	 1.354397e+09 	 1.252921e+22 	 1.445636e+08 	 9.228451e+38 	 6.031967e+38 	 3.152308e+22 	 3.230263e+09
1.20033528e+06 	 2.025044e+00 	 2.894826e+08 	 4.765234e+04 	 1.351494e+09 	 1.240692e+22 	 1.429413e+08 	 9.228342e+38 	 6.031929e+38 	 3.123086e+22 	 3.201645e+09
1.20034813e+06 	 2.045832e+00 	 2.891724e+08 	 4.716701e+04 	 1.348599e+09 	 1.228593e+22 	 1.413373e+08 	 9.228232e+38 	 6.031892e+38 	 3.094158e+22 	 3.173276e+09
1.20036097e+06 	 2.066832e+00 	 2.888628e+08 	 4.668661e+04 	 1.345712e+09 	 1.216620e+22 	 1.397514e+08 	 9.228123e+38 	 6.031855e+38 	 3.065519e+22 	 3.145153e+09
1.20037382e+06 	 2.088049e+00 	 2.885536e+08 	 4.621112e+04 	 1.342833e+09 	 1.204774e+22 	 1.381833e+08 	 9.228013e+38 	 6.031817e+38 	 3.037168e+22 	 3.117274e+09
1.20038666e+06 	 2.109483e+00 	 2.882450e+08 	 4.574046e+04 	 1.339963e+09 	 1.193051e+22 	 1.366330e+08 	 9.227903e+38 	 6.031779e+38 	 3.009100e+22 	 3.089638e+09
1.20039949e+06 	 2.131137e+00 	 2.879370e+08 	 4.527460e+04 	 1.337100e+09 	 1.181452e+22 	 1.351002e+08 	 9.227793e+38 	 6.031742e+38 	 2.981314e+22 	 3.062241e+09
1.20041233e+06 	 2.153014e+00 	 2.876295e+08 	 4.481348e+04 	 1.334246e+09 	 1.169974e+22 	 1.335846e+08 	 9.227683e+38 	 6.031704e+38 	 2.953805e+22 	 3.035083e+09
1.20042516e+06 	 2.175115e+00 	 2.873225e+08 	 4.435706e+04 	 1.331399e+09 	 1.158617e+22 	 1.320862e+08 	 9.227573e+38 	 6.031666e+38 	 2.926572e+22 	 3.008161e+09
1.20043798e+06 	 2.197443e+00 	 2.870161e+08 	 4.390529e+04 	 1.328561e+09 	 1.147379e+22 	 1.306047e+08 	 9.227462e+38 	 6.031628e+38 	 2.899611e+22 	 2.981473e+09
1.20045081e+06 	 2.220001e+00 	 2.867102e+08 	 4.345812e+04 	 1.325731e+09 	 1.136258e+22 	 1.291398e+08 	 9.227352e+38 	 6.031590e+38 	 2.872919e+22 	 2.955017e+09
1.20046362e+06 	 2.242790e+00 	 2.864048e+08 	 4.301550e+04 	 1.322908e+09 	 1.125255e+22 	 1.276915e+08 	 9.227242e+38 	 6.031552e+38 	 2.846494e+22 	 2.928791e+09
1.20047644e+06 	 2.265812e+00 	 2.861000e+08 	 4.257740e+04 	 1.320094e+09 	 1.114366e+22 	 1.262596e+08 	 9.227131e+38 	 6.031514e+38 	 2.820334e+22 	 2.902793e+09
1.20048925e+06 	 2.289072e+00 	 2.857958e+08 	 4.214375e+04 	 1.317288e+09 	 1.103592e+22 	 1.248438e+08 	 9.227020e+38 	 6.031475e+38 	 2.794436e+22 	 2.877022e+09
1.20050206e+06 	 2.312569e+00 	 2.854920e+08 	 4.171452e+04 	 1.314489e+09 	 1.092930e+22 	 1.234439e+08 	 9.226909e+38 	 6.031437e+38 	 2.768795e+22 	 2.851474e+09
1.20051486e+06 	 2.336309e+00 	 2.851889e+08 	 4.128966e+04 	 1.311699e+09 	 1.082380e+22 	 1.220599e+08 	 9.226798e+38 	 6.031399e+38 	 2.743410e+22 	 2.826149e+09
1.20052767e+06 	 2.360292e+00 	 2.848862e+08 	 4.086913e+04 	 1.308916e+09 	 1.071940e+22 	 1.206914e+08 	 9.226687e+38 	 6.031360e+38 	 2.718277e+22 	 2.801044e+09
1.20054047e+06 	 2.384521e+00 	 2.845841e+08 	 4.045288e+04 	 1.306142e+09 	 1.061609e+22 	 1.193384e+08 	 9.226576e+38 	 6.031322e+38 	 2.693395e+22 	 2.776158e+09
1.20055326e+06 	 2.408998e+00 	 2.842825e+08 	 4.004088e+04 	 1.303375e+09 	 1.051385e+22 	 1.180006e+08 	 9.226465e+38 	 6.031283e+38 	 2.668761e+22 	 2.751489e+09
1.20056606e+06 	 2.433728e+00 	 2.839815e+08 	 3.963306e+04 	 1.300616e+09 	 1.041268e+22 	 1.166780e+08 	 9.226354e+38 	 6.031244e+38 	 2.644371e+22 	 2.727034e+09
1.20057885e+06 	 2.458710e+00 	 2.836809e+08 	 3.922941e+04 	 1.297865e+09 	 1.031257e+22 	 1.153702e+08 	 9.226242e+38 	 6.031205e+38 	 2.620224e+22 	 2.702792e+09
1.20059164e+06 	 2.483950e+00 	 2.833810e+08 	 3.882986e+04 	 1.295121e+09 	 1.021350e+22 	 1.140772e+08 	 9.226131e+38 	 6.031166e+38 	 2.596318e+22 	 2.678762e+09
1.20060442e+06 	 2.509448e+00 	 2.830815e+08 	 3.843438e+04 	 1.292386e+09 	 1.011547e+22 	 1.127987e+08 	 9.226019e+38 	 6.031127e+38 	 2.572650e+22 	 2.654941e+09
1.20061720e+06 	 2.535209e+00 	 2.827826e+08 	 3.804293e+04 	 1.289658e+09 	 1.001846e+22 	 1.115347e+08 	 9.225907e+38 	 6.031088e+38 	 2.549216e+22 	 2.631327e+09
1.20062998e+06 	 2.561234e+00 	 2.824843e+08 	 3.765547e+04 	 1.286938e+09 	 9.922455e+21 	 1.102849e+08 	 9.225795e+38 	 6.031049e+38 	 2.526015e+22 	 2.607919e+09
1.20064276e+06 	 2.587525e+00 	 2.821864e+08 	 3.727195e+04 	 1.284226e+09 	 9.827450e+21 	 1.090492e+08 	 9.225683e+38 	 6.031010e+38 	 2.503045e+22 	 2.584715e+09
1.20065554e+06 	 2.614087e+00 	 2.818891e+08 	 3.689234e+04 	 1.281521e+09 	 9.733433e+21 	 1.078275e+08 	 9.225571e+38 	 6.030970e+38 	 2.480302e+22 	 2.561714e+09
1.20066831e+06 	 2.640922e+00 	 2.815924e+08 	 3.651660e+04 	 1.278824e+09 	 9.640392e+21 	 1.066195e+08 	 9.225459e+38 	 6.030931e+38 	 2.457784e+22 	 2.538913e+09
1.20068108e+06 	 2.668032e+00 	 2.812961e+08 	 3.614468e+04 	 1.276135e+09 	 9.548316e+21 	 1.054251e+08 	 9.225346e+38 	 6.030892e+38 	 2.435489e+22 	 2.516311e+09
1.20069385e+06 	 2.695420e+00 	 2.810004e+08 	 3.577655e+04 	 1.273453e+09 	 9.457197e+21 	 1.042442e+08 	 9.225234e+38 	 6.030852e+38 	 2.413415e+22 	 2.493906e+09
1.20070662e+06 	 2.723090e+00 	 2.807052e+08 	 3.541217e+04 	 1.270779e+09 	 9.367023e+21 	 1.030766e+08 	 9.225121e+38 	 6.030812e+38 	 2.391559e+22 	 2.471697e+09
1.20071938e+06 	 2.751043e+00 	 2.804106e+08 	 3.505150e+04 	 1.268113e+09 	 9.277784e+21 	 1.019221e+08 	 9.225008e+38 	 6.030772e+38 	 2.369920e+22 	 2.449681e+09
1.20073214e+06 	 2.779284e+00 	 2.801165e+08 	 3.469450e+04 	 1.265454e+09 	 9.189472e+21 	 1.007807e+08 	 9.224895e+38 	 6.030733e+38 	 2.348495e+22 	 2.427858e+09
1.20074490e+06 	 2.807814e+00 	 2.798229e+08 	 3.434115e+04 	 1.262803e+09 	 9.102078e+21 	 9.965213e+07 	 9.224782e+38 	 6.030693e+38 	 2.327282e+22 	 2.406224e+09
1.20075766e+06 	 2.836637e+00 	 2.795299e+08 	 3.399138e+04 	 1.260160e+09 	 9.015586e+21 	 9.853627e+07 	 9.224669e+38 	 6.030652e+38 	 2.306278e+22 	 2.384780e+09
1.20077042e+06 	 2.865756e+00 	 2.792374e+08 	 3.364519e+04 	 1.257524e+09 	 8.929990e+21 	 9.743298e+07 	 9.224555e+38 	 6.030612e+38 	 2.285482e+22 	 2.363523e+09
1.20078317e+06 	 2.895174e+00 	 2.789454e+08 	 3.330251e+04 	 1.254895e+09 	 8.845279e+21 	 9.634212e+07 	 9.224442e+38 	 6.030572e+38 	 2.264891e+22 	 2.342452e+09
1.20079592e+06 	 2.924895e+00 	 2.786539e+08 	 3.296333e+04 	 1.252274e+09 	 8.761444e+21 	 9.526355e+07 	 9.224328e+38 	 6.030532e+38 	 2.244503e+22 	 2.321565e+09
1.20080867e+06 	 2.954920e+00 	 2.783630e+08 	 3.262760e+04 	 1.249660e+09 	 8.678474e+21 	 9.419713e+07 	 9.224215e+38 	 6.030491e+38 	 2.224315e+22 	 2.300860e+09
1.20082143e+06 	 2.985253e+00 	 2.780726e+08 	 3.229529e+04 	 1.247054e+09 	 8.596362e+21 	 9.314273e+07 	 9.224101e+38 	 6.030451e+38 	 2.204327e+22 	 2.280336e+09
1.20083417e+06 	 3.015898e+00 	 2.777827e+08 	 3.196637e+04 	 1.244456e+09 	 8.515097e+21 	 9.210019e+07 	 9.223987e+38 	 6.030410e+38 	 2.184535e+22 	 2.259991e+09
1.20084692e+06 	 3.046857e+00 	 2.774933e+08 	 3.164080e+04 	 1.241864e+09 	 8.434671e+21 	 9.106941e+07 	 9.223873e+38 	 6.030369e+38 	 2.164938e+22 	 2.239825e+09
1.20085967e+06 	 3.078135e+00 	 2.772045e+08 	 3.131854e+04 	 1.239281e+09 	 8.355076e+21 	 9.005023e+07 	 9.223758e+38 	 6.030329e+38 	 2.145534e+22 	 2.219834e+09
1.20087241e+06 	 3.109733e+00 	 2.769162e+08 	 3.099956e+04 	 1.236704e+09 	 8.276301e+21 	 8.904253e+07 	 9.223644e+38 	 6.030288e+38 	 2.126321e+22 	 2.200019e+09
1.20088515e+06 	 3.141656e+00 	 2.766284e+08 	 3.068384e+04 	 1.234135e+09 	 8.198338e+21 	 8.804618e+07 	 9.223529e+38 	 6.030247e+38 	 2.107297e+22 	 2.180376e+09
1.20089790e+06 	 3.173906e+00 	 2.763412e+08 	 3.037132e+04 	 1.231574e+09 	 8.121177e+21 	 8.706105e+07 	 9.223415e+38 	 6.030205e+38 	 2.088460e+22 	 2.160906e+09
1.20091064e+06 	 3.206487e+00 	 2.760545e+08 	 3.006200e+04 	 1.229019e+09 	 8.044810e+21 	 8.608701e+07 	 9.223300e+38 	 6.030164e+38 	 2.069807e+22 	 2.141605e+09
1.20092338e+06 	 3.239403e+00 	 2.757683e+08 	 2.975582e+04 	 1.226472e+09 	 7.969228e+21 	 8.512394e+07 	 9.223185e+38 	 6.030123e+38 	 2.051337e+22 	 2.122474e+09
1.20093612e+06 	 3.272657e+00 	 2.754826e+08 	 2.945276e+04 	 1.223932e+09 	 7.894423e+21 	 8.417171e+07 	 9.223069e+38 	 6.030081e+38 	 2.033048e+22 	 2.103510e+09
1.20094886e+06 	 3.306252e+00 	 2.751974e+08 	 2.915278e+04 	 1.221400e+09 	 7.820386e+21 	 8.323020e+07 	 9.222954e+38 	 6.030040e+38 	 2.014939e+22 	 2.084712e+09
1.20096159e+06 	 3.340192e+00 	 2.749128e+08 	 2.885587e+04 	 1.218875e+09 	 7.747109e+21 	 8.229929e+07 	 9.222839e+38 	 6.029998e+38 	 1.997007e+22 	 2.066079e+09
1.20097433e+06 	 3.374481e+00 	 2.746287e+08 	 2.856197e+04 	 1.216357e+09 	 7.674585e+21 	 8.137887e+07 	 9.222723e+38 	 6.029957e+38 	 1.979250e+22 	 2.047608e+09
1.20098707e+06 	 3.409121e+00 	 2.743451e+08 	 2.827107e+04 	 1.213846e+09 	 7.602807e+21 	 8.046880e+07 	 9.222607e+38 	 6.029915e+38 	 1.961668e+22 	 2.029300e+09
1.20099980e+06 	 3.444117e+00 	 2.740621e+08 	 2.798313e+04 	 1.211343e+09 	 7.531765e+21 	 7.956898e+07 	 9.222491e+38 	 6.029873e+38 	 1.944257e+22 	 2.011152e+09
1.20101254e+06 	 3.479473e+00 	 2.737796e+08 	 2.769813e+04 	 1.208846e+09 	 7.461450e+21 	 7.867929e+07 	 9.222375e+38 	 6.029831e+38 	 1.927017e+22 	 1.993162e+09
1.20102527e+06 	 3.515191e+00 	 2.734975e+08 	 2.741603e+04 	 1.206357e+09 	 7.391856e+21 	 7.779960e+07 	 9.222259e+38 	 6.029789e+38 	 1.909945e+22 	 1.975331e+09
1.20103801e+06 	 3.551276e+00 	 2.732161e+08 	 2.713680e+04 	 1.203875e+09 	 7.322973e+21 	 7.692982e+07 	 9.222143e+38 	 6.029746e+38 	 1.893040e+22 	 1.957655e+09
1.20105074e+06 	 3.587731e+00 	 2.729351e+08 	 2.686041e+04 	 1.201401e+09 	 7.254795e+21 	 7.606983e+07 	 9.222026e+38 	 6.029704e+38 	 1.876299e+22 	 1.940135e+09
1.20106347e+06 	 3.624561e+00 	 2.726546e+08 	 2.658684e+04 	 1.198933e+09 	 7.187314e+21 	 7.521951e+07 	 9.221909e+38 	 6.029662e+38 	 1.859722e+22 	 1.922768e+09
1.20107621e+06 	 3.661769e+00 	 2.723747e+08 	 2.631606e+04 	 1.196472e+09 	 7.120522e+21 	 7.437876e+07 	 9.221792e+38 	 6.029619e+38 	 1.843306e+22 	 1.905554e+09
1.20108894e+06 	 3.699358e+00 	 2.720953e+08 	 2.604803e+04 	 1.194019e+09 	 7.054412e+21 	 7.354747e+07 	 9.221675e+38 	 6.029576e+38 	 1.827050e+22 	 1.888490e+09
1.20110168e+06 	 3.737334e+00 	 2.718164e+08 	 2.578274e+04 	 1.191572e+09 	 6.988977e+21 	 7.272554e+07 	 9.221558e+38 	 6.029533e+38 	 1.810953e+22 	 1.871576e+09
1.20111441e+06 	 3.775699e+00 	 2.715380e+08 	 2.552014e+04 	 1.189133e+09 	 6.924210e+21 	 7.191285e+07 	 9.221441e+38 	 6.029491e+38 	 1.795012e+22 	 1.854811e+09
1.20112714e+06 	 3.814458e+00 	 2.712601e+08 	 2.526022e+04 	 1.186700e+09 	 6.860106e+21 	 7.110931e+07 	 9.221323e+38 	 6.029447e+38 	 1.779227e+22 	 1.838192e+09
1.20113988e+06 	 3.853615e+00 	 2.709828e+08 	 2.500295e+04 	 1.184275e+09 	 6.796654e+21 	 7.031480e+07 	 9.221205e+38 	 6.029404e+38 	 1.763595e+22 	 1.821719e+09
1.20115261e+06 	 3.893174e+00 	 2.707060e+08 	 2.474830e+04 	 1.181857e+09 	 6.733849e+21 	 6.952924e+07 	 9.221088e+38 	 6.029361e+38 	 1.748115e+22 	 1.805391e+09
1.20116535e+06 	 3.933140e+00 	 2.704297e+08 	 2.449624e+04 	 1.179445e+09 	 6.671683e+21 	 6.875250e+07 	 9.220970e+38 	 6.029318e+38 	 1.732785e+22 	 1.789206e+09
1.20117808e+06 	 3.973515e+00 	 2.701539e+08 	 2.424675e+04 	 1.177041e+09 	 6.610149e+21 	 6.798451e+07 	 9.220851e+38 	 6.029274e+38 	 1.717604e+22 	 1.773164e+09
1.20119082e+06 	 4.014305e+00 	 2.698786e+08 	 2.399980e+04 	 1.174644e+09 	 6.549240e+21 	 6.722515e+07 	 9.220733e+38 	 6.029231e+38 	 1.702570e+22 	 1.757262e+09
1.20120356e+06 	 4.055513e+00 	 2.696039e+08 	 2.375536e+04 	 1.172253e+09 	 6.488950e+21 	 6.647433e+07 	 9.220614e+38 	 6.029187e+38 	 1.687682e+22 	 1.741500e+09
1.20121629e+06 	 4.097145e+00 	 2.693296e+08 	 2.351342e+04 	 1.169869e+09 	 6.429272e+21 	 6.573195e+07 	 9.220495e+38 	 6.029143e+38 	 1.672938e+22 	 1.725876e+09
1.20122903e+06 	 4.139204e+00 	 2.690559e+08 	 2.327393e+04 	 1.167493e+09 	 6.370201e+21 	 6.499792e+07 	 9.220376e+38 	 6.029099e+38 	 1.658336e+22 	 1.710390e+09
1.20124177e+06 	 4.181694e+00 	 2.687827e+08 	 2.303689e+04 	 1.165123e+09 	 6.311729e+21 	 6.427215e+07 	 9.220257e+38 	 6.029055e+38 	 1.643877e+22 	 1.695040e+09
1.20125451e+06 	 4.224621e+00 	 2.685100e+08 	 2.280226e+04 	 1.162760e+09 	 6.253851e+21 	 6.355453e+07 	 9.220138e+38 	 6.029011e+38 	 1.629557e+22 	 1.679824e+09
1.20126725e+06 	 4.267989e+00 	 2.682378e+08 	 2.257002e+04 	 1.160404e+09 	 6.196560e+21 	 6.284499e+07 	 9.220018e+38 	 6.028967e+38 	 1.615376e+22 	 1.664743e+09
1.20127999e+06 	 4.311802e+00 	 2.679662e+08 	 2.234015e+04 	 1.158054e+09 	 6.139849e+21 	 6.214342e+07 	 9.219899e+38 	 6.028922e+38 	 1.601332e+22 	 1.649794e+09
1.20129273e+06 	 4.356064e+00 	 2.676950e+08 	 2.211262e+04 	 1.155712e+09 	 6.083712e+21 	 6.144974e+07 	 9.219779e+38 	 6.028878e+38 	 1.587423e+22 	 1.634976e+09
1.20130548e+06 	 4.400781e+00 	 2.674244e+08 	 2.188741e+04 	 1.153376e+09 	 6.028142e+21 	 6.076385e+07 	 9.219659e+38 	 6.028833e+38 	 1.573648e+22 	 1.620289e+09
1.20131822e+06 	 4.445957e+00 	 2.671542e+08 	 2.166448e+04 	 1.151047e+09 	 5.973135e+21 	 6.008568e+07 	 9.219538e+38 	 6.028788e+38 	 1.560007e+22 	 1.605731e+09
1.20133097e+06 	 4.491596e+00 	 2.668846e+08 	 2.144383e+04 	 1.148725e+09 	 5.918682e+21 	 5.941512e+07 	 9.219418e+38 	 6.028743e+38 	 1.546496e+22 	 1.591301e+09
1.20134372e+06 	 4.537704e+00 	 2.666155e+08 	 2.122543e+04 	 1.146410e+09 	 5.864780e+21 	 5.875211e+07 	 9.219297e+38 	 6.028698e+38 	 1.533116e+22 	 1.576998e+09
1.20135647e+06 	 4.584286e+00 	 2.663469e+08 	 2.100925e+04 	 1.144101e+09 	 5.811421e+21 	 5.809654e+07 	 9.219176e+38 	 6.028653e+38 	 1.519865e+22 	 1.562821e+09
1.20136922e+06 	 4.631345e+00 	 2.660788e+08 	 2.079528e+04 	 1.141799e+09 	 5.758601e+21 	 5.744834e+07 	 9.219055e+38 	 6.028608e+38 	 1.506741e+22 	 1.548769e+09
1.20138197e+06 	 4.678888e+00 	 2.658112e+08 	 2.058348e+04 	 1.139504e+09 	 5.706314e+21 	 5.680742e+07 	 9.218934e+38 	 6.028562e+38 	 1.493744e+22 	 1.534840e+09
1.20139473e+06 	 4.726919e+00 	 2.655442e+08 	 2.037384e+04 	 1.137215e+09 	 5.654556e+21 	 5.617371e+07 	 9.218813e+38 	 6.028517e+38 	 1.480872e+22 	 1.521034e+09
1.20140748e+06 	 4.775442e+00 	 2.652776e+08 	 2.016633e+04 	 1.134933e+09 	 5.603318e+21 	 5.554712e+07 	 9.218691e+38 	 6.028471e+38 	 1.468123e+22 	 1.507350e+09
1.20142024e+06 	 4.824464e+00 	 2.650116e+08 	 1.996094e+04 	 1.132658e+09 	 5.552596e+21 	 5.492756e+07 	 9.218569e+38 	 6.028425e+38 	 1.455497e+22 	 1.493786e+09
1.20143300e+06 	 4.873989e+00 	 2.647460e+08 	 1.975764e+04 	 1.130389e+09 	 5.502384e+21 	 5.431497e+07 	 9.218447e+38 	 6.028379e+38 	 1.442992e+22 	 1.480342e+09
1.20144576e+06 	 4.924022e+00 	 2.644810e+08 	 1.955641e+04 	 1.128127e+09 	 5.452676e+21 	 5.370926e+07 	 9.218325e+38 	 6.028333e+38 	 1.430607e+22 	 1.467016e+09
1.20145853e+06 	 4.974569e+00 	 2.642165e+08 	 1.935723e+04 	 1.125872e+09 	 5.403467e+21 	 5.311035e+07 	 9.218202e+38 	 6.028287e+38 	 1.418340e+22 	 1.453808e+09
1.20147129e+06 	 5.025635e+00 	 2.639525e+08 	 1.916008e+04 	 1.123623e+09 	 5.354753e+21 	 5.251816e+07 	 9.218080e+38 	 6.028241e+38 	 1.406191e+22 	 1.440716e+09
1.20148406e+06 	 5.077225e+00 	 2.636890e+08 	 1.896494e+04 	 1.121380e+09 	 5.306527e+21 	 5.193263e+07 	 9.217957e+38 	 6.028194e+38 	 1.394158e+22 	 1.427740e+09
1.20149683e+06 	 5.129345e+00 	 2.634260e+08 	 1.877178e+04 	 1.119145e+09 	 5.258785e+21 	 5.135367e+07 	 9.217833e+38 	 6.028147e+38 	 1.382240e+22 	 1.414878e+09
1.20150960e+06 	 5.181999e+00 	 2.631635e+08 	 1.858059e+04 	 1.116915e+09 	 5.211523e+21 	 5.078122e+07 	 9.217710e+38 	 6.028101e+38 	 1.370437e+22 	 1.402130e+09
1.20152238e+06 	 5.235195e+00 	 2.629015e+08 	 1.839135e+04 	 1.114693e+09 	 5.164734e+21 	 5.021520e+07 	 9.217587e+38 	 6.028054e+38 	 1.358746e+22 	 1.389494e+09
