r (km)        	 u (km/s)    	 cs (km/s)   	 rho (g/cm3) 	 T (K)       	 P (dyne/cm2) 	 phi         	 L (erg/s)   	 L* (erg/s)  	 E (erg)     	 tau        
1.20023809e+01 	 1.116312e-06 	 2.837445e+03 	 1.088461e+05 	 1.298447e+09 	 1.597852e+22 	 2.556990e+09 	 5.945639e+38 	 3.886087e+38 	 3.511323e+22 	 7.500750e+09
1.20024849e+01 	 1.130207e-06 	 2.833085e+03 	 1.075058e+05 	 1.294459e+09 	 1.575521e+22 	 2.521531e+09 	 5.945609e+38 	 3.886085e+38 	 3.463766e+22 	 7.422409e+09
1.20025887e+01 	 1.144275e-06 	 2.828731e+03 	 1.061820e+05 	 1.290484e+09 	 1.553508e+22 	 2.486566e+09 	 5.945579e+38 	 3.886083e+38 	 3.416871e+22 	 7.344873e+09
1.20026923e+01 	 1.158518e-06 	 2.824385e+03 	 1.048745e+05 	 1.286521e+09 	 1.531808e+22 	 2.452087e+09 	 5.945548e+38 	 3.886081e+38 	 3.370629e+22 	 7.268134e+09
1.20027956e+01 	 1.172939e-06 	 2.820047e+03 	 1.035831e+05 	 1.282572e+09 	 1.510419e+22 	 2.418088e+09 	 5.945518e+38 	 3.886079e+38 	 3.325030e+22 	 7.192184e+09
1.20028988e+01 	 1.187539e-06 	 2.815716e+03 	 1.023077e+05 	 1.278636e+09 	 1.489334e+22 	 2.384562e+09 	 5.945488e+38 	 3.886077e+38 	 3.280065e+22 	 7.117015e+09
1.20030018e+01 	 1.202321e-06 	 2.811393e+03 	 1.010479e+05 	 1.274712e+09 	 1.468549e+22 	 2.351503e+09 	 5.945458e+38 	 3.886075e+38 	 3.235724e+22 	 7.042618e+09
1.20031046e+01 	 1.217286e-06 	 2.807077e+03 	 9.980361e+04 	 1.270801e+09 	 1.448060e+22 	 2.318904e+09 	 5.945428e+38 	 3.886073e+38 	 3.192000e+22 	 6.968988e+09
1.20032072e+01 	 1.232439e-06 	 2.802768e+03 	 9.857467e+04 	 1.266903e+09 	 1.427864e+22 	 2.286758e+09 	 5.945398e+38 	 3.886071e+38 	 3.148883e+22 	 6.896114e+09
1.20033095e+01 	 1.247780e-06 	 2.798467e+03 	 9.736086e+04 	 1.263018e+09 	 1.407955e+22 	 2.255059e+09 	 5.945368e+38 	 3.886069e+38 	 3.106365e+22 	 6.823990e+09
1.20034117e+01 	 1.263311e-06 	 2.794173e+03 	 9.616200e+04 	 1.259145e+09 	 1.388329e+22 	 2.223802e+09 	 5.945338e+38 	 3.886067e+38 	 3.064437e+22 	 6.752609e+09
1.20035137e+01 	 1.279037e-06 	 2.789887e+03 	 9.497789e+04 	 1.255285e+09 	 1.368983e+22 	 2.192979e+09 	 5.945308e+38 	 3.886065e+38 	 3.023090e+22 	 6.681962e+09
1.20036155e+01 	 1.294958e-06 	 2.785608e+03 	 9.380837e+04 	 1.251437e+09 	 1.349912e+22 	 2.162585e+09 	 5.945278e+38 	 3.886063e+38 	 2.982317e+22 	 6.612042e+09
1.20037171e+01 	 1.311077e-06 	 2.781336e+03 	 9.265325e+04 	 1.247602e+09 	 1.331112e+22 	 2.132613e+09 	 5.945248e+38 	 3.886061e+38 	 2.942109e+22 	 6.542842e+09
1.20038185e+01 	 1.327397e-06 	 2.777072e+03 	 9.151236e+04 	 1.243780e+09 	 1.312579e+22 	 2.103059e+09 	 5.945219e+38 	 3.886058e+38 	 2.902458e+22 	 6.474355e+09
1.20039197e+01 	 1.343920e-06 	 2.772815e+03 	 9.038551e+04 	 1.239969e+09 	 1.294310e+22 	 2.073915e+09 	 5.945189e+38 	 3.886056e+38 	 2.863356e+22 	 6.406573e+09
1.20040208e+01 	 1.360649e-06 	 2.768566e+03 	 8.927253e+04 	 1.236172e+09 	 1.276301e+22 	 2.045177e+09 	 5.945159e+38 	 3.886054e+38 	 2.824796e+22 	 6.339489e+09
1.20041216e+01 	 1.377586e-06 	 2.764323e+03 	 8.817327e+04 	 1.232386e+09 	 1.258547e+22 	 2.016838e+09 	 5.945130e+38 	 3.886052e+38 	 2.786769e+22 	 6.273097e+09
1.20042222e+01 	 1.394734e-06 	 2.760089e+03 	 8.708753e+04 	 1.228613e+09 	 1.241046e+22 	 1.988893e+09 	 5.945100e+38 	 3.886050e+38 	 2.749269e+22 	 6.207388e+09
1.20043227e+01 	 1.412096e-06 	 2.755861e+03 	 8.601517e+04 	 1.224852e+09 	 1.223793e+22 	 1.961337e+09 	 5.945071e+38 	 3.886048e+38 	 2.712287e+22 	 6.142357e+09
1.20044229e+01 	 1.429674e-06 	 2.751641e+03 	 8.495601e+04 	 1.221104e+09 	 1.206785e+22 	 1.934164e+09 	 5.945042e+38 	 3.886046e+38 	 2.675816e+22 	 6.077996e+09
1.20045230e+01 	 1.447470e-06 	 2.747427e+03 	 8.390990e+04 	 1.217367e+09 	 1.190018e+22 	 1.907369e+09 	 5.945012e+38 	 3.886044e+38 	 2.639849e+22 	 6.014299e+09
1.20046229e+01 	 1.465488e-06 	 2.743222e+03 	 8.287666e+04 	 1.213643e+09 	 1.173490e+22 	 1.880946e+09 	 5.944983e+38 	 3.886042e+38 	 2.604379e+22 	 5.951258e+09
1.20047226e+01 	 1.483731e-06 	 2.739023e+03 	 8.185615e+04 	 1.209931e+09 	 1.157196e+22 	 1.854890e+09 	 5.944954e+38 	 3.886040e+38 	 2.569398e+22 	 5.888867e+09
1.20048221e+01 	 1.502201e-06 	 2.734832e+03 	 8.084821e+04 	 1.206230e+09 	 1.141133e+22 	 1.829197e+09 	 5.944924e+38 	 3.886038e+38 	 2.534901e+22 	 5.827120e+09
1.20049214e+01 	 1.520900e-06 	 2.730648e+03 	 7.985267e+04 	 1.202542e+09 	 1.125297e+22 	 1.803860e+09 	 5.944895e+38 	 3.886036e+38 	 2.500879e+22 	 5.766010e+09
1.20050205e+01 	 1.539833e-06 	 2.726471e+03 	 7.886940e+04 	 1.198866e+09 	 1.109686e+22 	 1.778876e+09 	 5.944866e+38 	 3.886034e+38 	 2.467327e+22 	 5.705531e+09
1.20051195e+01 	 1.559001e-06 	 2.722301e+03 	 7.789823e+04 	 1.195202e+09 	 1.094296e+22 	 1.754239e+09 	 5.944837e+38 	 3.886032e+38 	 2.434237e+22 	 5.645675e+09
1.20052183e+01 	 1.578408e-06 	 2.718138e+03 	 7.693902e+04 	 1.191550e+09 	 1.079125e+22 	 1.729944e+09 	 5.944808e+38 	 3.886030e+38 	 2.401603e+22 	 5.586438e+09
1.20053169e+01 	 1.598056e-06 	 2.713983e+03 	 7.599162e+04 	 1.187909e+09 	 1.064168e+22 	 1.705987e+09 	 5.944779e+38 	 3.886028e+38 	 2.369419e+22 	 5.527812e+09
1.20054153e+01 	 1.617949e-06 	 2.709835e+03 	 7.505589e+04 	 1.184281e+09 	 1.049423e+22 	 1.682363e+09 	 5.944750e+38 	 3.886026e+38 	 2.337678e+22 	 5.469791e+09
1.20055135e+01 	 1.638090e-06 	 2.705693e+03 	 7.413168e+04 	 1.180664e+09 	 1.034886e+22 	 1.659067e+09 	 5.944722e+38 	 3.886024e+38 	 2.306374e+22 	 5.412369e+09
1.20056115e+01 	 1.658482e-06 	 2.701559e+03 	 7.321885e+04 	 1.177059e+09 	 1.020556e+22 	 1.636094e+09 	 5.944693e+38 	 3.886022e+38 	 2.275500e+22 	 5.355541e+09
1.20057094e+01 	 1.679127e-06 	 2.697433e+03 	 7.231726e+04 	 1.173465e+09 	 1.006428e+22 	 1.613441e+09 	 5.944664e+38 	 3.886020e+38 	 2.245051e+22 	 5.299299e+09
1.20058071e+01 	 1.700030e-06 	 2.693313e+03 	 7.142678e+04 	 1.169884e+09 	 9.924994e+21 	 1.591102e+09 	 5.944635e+38 	 3.886018e+38 	 2.215021e+22 	 5.243639e+09
1.20059046e+01 	 1.721193e-06 	 2.689200e+03 	 7.054725e+04 	 1.166314e+09 	 9.787683e+21 	 1.569074e+09 	 5.944607e+38 	 3.886016e+38 	 2.185404e+22 	 5.188554e+09
1.20060019e+01 	 1.742619e-06 	 2.685095e+03 	 6.967856e+04 	 1.162755e+09 	 9.652313e+21 	 1.547352e+09 	 5.944578e+38 	 3.886014e+38 	 2.156194e+22 	 5.134038e+09
1.20060991e+01 	 1.764312e-06 	 2.680996e+03 	 6.882057e+04 	 1.159208e+09 	 9.518856e+21 	 1.525931e+09 	 5.944550e+38 	 3.886012e+38 	 2.127385e+22 	 5.080085e+09
1.20061961e+01 	 1.786275e-06 	 2.676905e+03 	 6.797314e+04 	 1.155673e+09 	 9.387284e+21 	 1.504808e+09 	 5.944521e+38 	 3.886010e+38 	 2.098972e+22 	 5.026690e+09
1.20062928e+01 	 1.808512e-06 	 2.672820e+03 	 6.713614e+04 	 1.152149e+09 	 9.257571e+21 	 1.483978e+09 	 5.944493e+38 	 3.886008e+38 	 2.070948e+22 	 4.973848e+09
1.20063895e+01 	 1.831026e-06 	 2.668743e+03 	 6.630945e+04 	 1.148636e+09 	 9.129690e+21 	 1.463437e+09 	 5.944464e+38 	 3.886006e+38 	 2.043310e+22 	 4.921551e+09
1.20064859e+01 	 1.853820e-06 	 2.664673e+03 	 6.549294e+04 	 1.145135e+09 	 9.003614e+21 	 1.443182e+09 	 5.944436e+38 	 3.886004e+38 	 2.016050e+22 	 4.869796e+09
1.20065822e+01 	 1.876897e-06 	 2.660609e+03 	 6.468649e+04 	 1.141646e+09 	 8.879317e+21 	 1.423208e+09 	 5.944408e+38 	 3.886002e+38 	 1.989163e+22 	 4.818576e+09
1.20066783e+01 	 1.900262e-06 	 2.656553e+03 	 6.388996e+04 	 1.138167e+09 	 8.756774e+21 	 1.403511e+09 	 5.944380e+38 	 3.886000e+38 	 1.962646e+22 	 4.767886e+09
1.20067742e+01 	 1.923918e-06 	 2.652504e+03 	 6.310325e+04 	 1.134700e+09 	 8.635959e+21 	 1.384087e+09 	 5.944351e+38 	 3.885998e+38 	 1.936491e+22 	 4.717721e+09
1.20068700e+01 	 1.947869e-06 	 2.648461e+03 	 6.232622e+04 	 1.131244e+09 	 8.516849e+21 	 1.364934e+09 	 5.944323e+38 	 3.885996e+38 	 1.910695e+22 	 4.668075e+09
1.20069656e+01 	 1.972118e-06 	 2.644426e+03 	 6.155876e+04 	 1.127800e+09 	 8.399417e+21 	 1.346046e+09 	 5.944295e+38 	 3.885994e+38 	 1.885252e+22 	 4.618943e+09
1.20070610e+01 	 1.996669e-06 	 2.640398e+03 	 6.080075e+04 	 1.124366e+09 	 8.283640e+21 	 1.327420e+09 	 5.944267e+38 	 3.885992e+38 	 1.860157e+22 	 4.570320e+09
1.20071562e+01 	 2.021525e-06 	 2.636376e+03 	 6.005207e+04 	 1.120944e+09 	 8.169495e+21 	 1.309053e+09 	 5.944239e+38 	 3.885990e+38 	 1.835405e+22 	 4.522200e+09
1.20072513e+01 	 2.046691e-06 	 2.632362e+03 	 5.931261e+04 	 1.117533e+09 	 8.056958e+21 	 1.290941e+09 	 5.944211e+38 	 3.885988e+38 	 1.810991e+22 	 4.474579e+09
1.20073462e+01 	 2.072170e-06 	 2.628354e+03 	 5.858226e+04 	 1.114132e+09 	 7.946006e+21 	 1.273080e+09 	 5.944183e+38 	 3.885987e+38 	 1.786912e+22 	 4.427450e+09
1.20074410e+01 	 2.097967e-06 	 2.624353e+03 	 5.786090e+04 	 1.110743e+09 	 7.836616e+21 	 1.255467e+09 	 5.944155e+38 	 3.885985e+38 	 1.763161e+22 	 4.380811e+09
1.20075355e+01 	 2.124084e-06 	 2.620359e+03 	 5.714842e+04 	 1.107365e+09 	 7.728765e+21 	 1.238098e+09 	 5.944127e+38 	 3.885983e+38 	 1.739735e+22 	 4.334654e+09
1.20076300e+01 	 2.150527e-06 	 2.616372e+03 	 5.644472e+04 	 1.103998e+09 	 7.622431e+21 	 1.220971e+09 	 5.944100e+38 	 3.885981e+38 	 1.716629e+22 	 4.288976e+09
1.20077242e+01 	 2.177300e-06 	 2.612392e+03 	 5.574968e+04 	 1.100642e+09 	 7.517594e+21 	 1.204081e+09 	 5.944072e+38 	 3.885979e+38 	 1.693838e+22 	 4.243772e+09
1.20078183e+01 	 2.204405e-06 	 2.608419e+03 	 5.506320e+04 	 1.097296e+09 	 7.414232e+21 	 1.187425e+09 	 5.944044e+38 	 3.885977e+38 	 1.671358e+22 	 4.199036e+09
1.20079122e+01 	 2.231848e-06 	 2.604453e+03 	 5.438517e+04 	 1.093962e+09 	 7.312322e+21 	 1.171001e+09 	 5.944017e+38 	 3.885975e+38 	 1.649184e+22 	 4.154764e+09
1.20080059e+01 	 2.259633e-06 	 2.600493e+03 	 5.371549e+04 	 1.090638e+09 	 7.211845e+21 	 1.154804e+09 	 5.943989e+38 	 3.885973e+38 	 1.627313e+22 	 4.110951e+09
1.20080995e+01 	 2.287764e-06 	 2.596540e+03 	 5.305406e+04 	 1.087325e+09 	 7.112779e+21 	 1.138832e+09 	 5.943961e+38 	 3.885971e+38 	 1.605740e+22 	 4.067593e+09
1.20081930e+01 	 2.316245e-06 	 2.592595e+03 	 5.240077e+04 	 1.084023e+09 	 7.015105e+21 	 1.123082e+09 	 5.943934e+38 	 3.885969e+38 	 1.584461e+22 	 4.024684e+09
1.20082862e+01 	 2.345080e-06 	 2.588655e+03 	 5.175553e+04 	 1.080731e+09 	 6.918803e+21 	 1.107550e+09 	 5.943906e+38 	 3.885967e+38 	 1.563472e+22 	 3.982221e+09
1.20083793e+01 	 2.374275e-06 	 2.584723e+03 	 5.111823e+04 	 1.077450e+09 	 6.823854e+21 	 1.092234e+09 	 5.943879e+38 	 3.885965e+38 	 1.542768e+22 	 3.940198e+09
1.20084723e+01 	 2.403833e-06 	 2.580798e+03 	 5.048878e+04 	 1.074180e+09 	 6.730237e+21 	 1.077130e+09 	 5.943852e+38 	 3.885963e+38 	 1.522346e+22 	 3.898612e+09
1.20085650e+01 	 2.433760e-06 	 2.576879e+03 	 4.986708e+04 	 1.070920e+09 	 6.637935e+21 	 1.062235e+09 	 5.943824e+38 	 3.885961e+38 	 1.502203e+22 	 3.857457e+09
1.20086577e+01 	 2.464059e-06 	 2.572967e+03 	 4.925304e+04 	 1.067671e+09 	 6.546927e+21 	 1.047547e+09 	 5.943797e+38 	 3.885959e+38 	 1.482333e+22 	 3.816730e+09
1.20087501e+01 	 2.494735e-06 	 2.569062e+03 	 4.864656e+04 	 1.064433e+09 	 6.457196e+21 	 1.033063e+09 	 5.943770e+38 	 3.885957e+38 	 1.462733e+22 	 3.776426e+09
1.20088424e+01 	 2.525793e-06 	 2.565163e+03 	 4.804754e+04 	 1.061205e+09 	 6.368723e+21 	 1.018780e+09 	 5.943743e+38 	 3.885955e+38 	 1.443400e+22 	 3.736540e+09
1.20089346e+01 	 2.557238e-06 	 2.561272e+03 	 4.745590e+04 	 1.057987e+09 	 6.281490e+21 	 1.004695e+09 	 5.943715e+38 	 3.885953e+38 	 1.424329e+22 	 3.697069e+09
1.20090266e+01 	 2.589075e-06 	 2.557387e+03 	 4.687155e+04 	 1.054780e+09 	 6.195479e+21 	 9.908046e+08 	 5.943688e+38 	 3.885951e+38 	 1.405517e+22 	 3.658008e+09
1.20091184e+01 	 2.621308e-06 	 2.553508e+03 	 4.629439e+04 	 1.051583e+09 	 6.110674e+21 	 9.771072e+08 	 5.943661e+38 	 3.885949e+38 	 1.386961e+22 	 3.619353e+09
1.20092101e+01 	 2.653942e-06 	 2.549637e+03 	 4.572434e+04 	 1.048397e+09 	 6.027056e+21 	 9.635997e+08 	 5.943634e+38 	 3.885947e+38 	 1.368656e+22 	 3.581099e+09
1.20093016e+01 	 2.686983e-06 	 2.545772e+03 	 4.516131e+04 	 1.045221e+09 	 5.944610e+21 	 9.502796e+08 	 5.943607e+38 	 3.885945e+38 	 1.350600e+22 	 3.543243e+09
1.20093930e+01 	 2.720435e-06 	 2.541914e+03 	 4.460521e+04 	 1.042055e+09 	 5.863317e+21 	 9.371440e+08 	 5.943580e+38 	 3.885943e+38 	 1.332789e+22 	 3.505781e+09
1.20094842e+01 	 2.754303e-06 	 2.538062e+03 	 4.405596e+04 	 1.038899e+09 	 5.783162e+21 	 9.241906e+08 	 5.943553e+38 	 3.885941e+38 	 1.315219e+22 	 3.468709e+09
1.20095752e+01 	 2.788594e-06 	 2.534217e+03 	 4.351347e+04 	 1.035754e+09 	 5.704128e+21 	 9.114167e+08 	 5.943527e+38 	 3.885939e+38 	 1.297887e+22 	 3.432022e+09
1.20096662e+01 	 2.823311e-06 	 2.530379e+03 	 4.297766e+04 	 1.032619e+09 	 5.626200e+21 	 8.988198e+08 	 5.943500e+38 	 3.885937e+38 	 1.280790e+22 	 3.395717e+09
1.20097569e+01 	 2.858461e-06 	 2.526547e+03 	 4.244845e+04 	 1.029494e+09 	 5.549361e+21 	 8.863976e+08 	 5.943473e+38 	 3.885935e+38 	 1.263924e+22 	 3.359789e+09
1.20098475e+01 	 2.894048e-06 	 2.522722e+03 	 4.192575e+04 	 1.026379e+09 	 5.473597e+21 	 8.741476e+08 	 5.943446e+38 	 3.885933e+38 	 1.247287e+22 	 3.324236e+09
1.20099380e+01 	 2.930079e-06 	 2.518903e+03 	 4.140950e+04 	 1.023274e+09 	 5.398891e+21 	 8.620673e+08 	 5.943419e+38 	 3.885931e+38 	 1.230875e+22 	 3.289052e+09
1.20100283e+01 	 2.966558e-06 	 2.515092e+03 	 4.089960e+04 	 1.020180e+09 	 5.325229e+21 	 8.501545e+08 	 5.943393e+38 	 3.885929e+38 	 1.214684e+22 	 3.254235e+09
1.20101184e+01 	 3.003491e-06 	 2.511286e+03 	 4.039597e+04 	 1.017095e+09 	 5.252596e+21 	 8.384067e+08 	 5.943366e+38 	 3.885927e+38 	 1.198713e+22 	 3.219780e+09
1.20102085e+01 	 3.040885e-06 	 2.507488e+03 	 3.989855e+04 	 1.014020e+09 	 5.180978e+21 	 8.268217e+08 	 5.943340e+38 	 3.885926e+38 	 1.182958e+22 	 3.185684e+09
1.20102983e+01 	 3.078743e-06 	 2.503696e+03 	 3.940726e+04 	 1.010956e+09 	 5.110359e+21 	 8.153973e+08 	 5.943313e+38 	 3.885924e+38 	 1.167416e+22 	 3.151943e+09
1.20103880e+01 	 3.117074e-06 	 2.499910e+03 	 3.892201e+04 	 1.007901e+09 	 5.040725e+21 	 8.041312e+08 	 5.943287e+38 	 3.885922e+38 	 1.152083e+22 	 3.118554e+09
1.20104776e+01 	 3.155882e-06 	 2.496131e+03 	 3.844274e+04 	 1.004856e+09 	 4.972063e+21 	 7.930211e+08 	 5.943260e+38 	 3.885920e+38 	 1.136958e+22 	 3.085513e+09
1.20105670e+01 	 3.195172e-06 	 2.492358e+03 	 3.796937e+04 	 1.001821e+09 	 4.904358e+21 	 7.820650e+08 	 5.943234e+38 	 3.885918e+38 	 1.122036e+22 	 3.052816e+09
1.20106563e+01 	 3.234953e-06 	 2.488592e+03 	 3.750183e+04 	 9.987956e+08 	 4.837598e+21 	 7.712607e+08 	 5.943207e+38 	 3.885916e+38 	 1.107316e+22 	 3.020459e+09
1.20107454e+01 	 3.275228e-06 	 2.484833e+03 	 3.704005e+04 	 9.957802e+08 	 4.771768e+21 	 7.606061e+08 	 5.943181e+38 	 3.885914e+38 	 1.092795e+22 	 2.988440e+09
1.20108344e+01 	 3.316005e-06 	 2.481080e+03 	 3.658395e+04 	 9.927745e+08 	 4.706857e+21 	 7.500990e+08 	 5.943155e+38 	 3.885912e+38 	 1.078470e+22 	 2.956755e+09
1.20109232e+01 	 3.357290e-06 	 2.477334e+03 	 3.613347e+04 	 9.897786e+08 	 4.642849e+21 	 7.397375e+08 	 5.943128e+38 	 3.885910e+38 	 1.064337e+22 	 2.925400e+09
1.20110119e+01 	 3.399089e-06 	 2.473594e+03 	 3.568854e+04 	 9.867924e+08 	 4.579733e+21 	 7.295196e+08 	 5.943102e+38 	 3.885908e+38 	 1.050395e+22 	 2.894373e+09
1.20111005e+01 	 3.441408e-06 	 2.469860e+03 	 3.524908e+04 	 9.838158e+08 	 4.517496e+21 	 7.194432e+08 	 5.943076e+38 	 3.885906e+38 	 1.036641e+22 	 2.863669e+09
1.20111889e+01 	 3.484255e-06 	 2.466133e+03 	 3.481504e+04 	 9.808489e+08 	 4.456126e+21 	 7.095063e+08 	 5.943050e+38 	 3.885904e+38 	 1.023072e+22 	 2.833285e+09
1.20112772e+01 	 3.527635e-06 	 2.462413e+03 	 3.438634e+04 	 9.778916e+08 	 4.395609e+21 	 6.997071e+08 	 5.943024e+38 	 3.885902e+38 	 1.009686e+22 	 2.803218e+09
1.20113653e+01 	 3.571555e-06 	 2.458698e+03 	 3.396292e+04 	 9.749438e+08 	 4.335934e+21 	 6.900436e+08 	 5.942998e+38 	 3.885900e+38 	 9.964799e+21 	 2.773465e+09
1.20114533e+01 	 3.616022e-06 	 2.454991e+03 	 3.354471e+04 	 9.720056e+08 	 4.277090e+21 	 6.805139e+08 	 5.942972e+38 	 3.885898e+38 	 9.834514e+21 	 2.744023e+09
1.20115411e+01 	 3.661043e-06 	 2.451289e+03 	 3.313166e+04 	 9.690770e+08 	 4.219063e+21 	 6.711162e+08 	 5.942946e+38 	 3.885896e+38 	 9.705981e+21 	 2.714888e+09
1.20116288e+01 	 3.706624e-06 	 2.447595e+03 	 3.272369e+04 	 9.661578e+08 	 4.161844e+21 	 6.618486e+08 	 5.942920e+38 	 3.885894e+38 	 9.579176e+21 	 2.686058e+09
1.20117164e+01 	 3.752773e-06 	 2.443906e+03 	 3.232074e+04 	 9.632480e+08 	 4.105419e+21 	 6.527093e+08 	 5.942894e+38 	 3.885892e+38 	 9.454074e+21 	 2.657528e+09
1.20118038e+01 	 3.799497e-06 	 2.440224e+03 	 3.192275e+04 	 9.603477e+08 	 4.049779e+21 	 6.436966e+08 	 5.942868e+38 	 3.885890e+38 	 9.330653e+21 	 2.629297e+09
1.20118911e+01 	 3.846803e-06 	 2.436548e+03 	 3.152967e+04 	 9.574567e+08 	 3.994911e+21 	 6.348087e+08 	 5.942842e+38 	 3.885888e+38 	 9.208889e+21 	 2.601360e+09
1.20119783e+01 	 3.894697e-06 	 2.432879e+03 	 3.114142e+04 	 9.545751e+08 	 3.940805e+21 	 6.260438e+08 	 5.942816e+38 	 3.885887e+38 	 9.088760e+21 	 2.573715e+09
1.20120653e+01 	 3.943188e-06 	 2.429216e+03 	 3.075796e+04 	 9.517028e+08 	 3.887450e+21 	 6.174003e+08 	 5.942791e+38 	 3.885885e+38 	 8.970243e+21 	 2.546360e+09
1.20121521e+01 	 3.992283e-06 	 2.425559e+03 	 3.037922e+04 	 9.488399e+08 	 3.834835e+21 	 6.088764e+08 	 5.942765e+38 	 3.885883e+38 	 8.853316e+21 	 2.519290e+09
1.20122389e+01 	 4.041989e-06 	 2.421909e+03 	 3.000514e+04 	 9.459862e+08 	 3.782951e+21 	 6.004706e+08 	 5.942739e+38 	 3.885881e+38 	 8.737956e+21 	 2.492503e+09
1.20123255e+01 	 4.092314e-06 	 2.418265e+03 	 2.963567e+04 	 9.431417e+08 	 3.731786e+21 	 5.921811e+08 	 5.942714e+38 	 3.885879e+38 	 8.624142e+21 	 2.465997e+09
1.20124120e+01 	 4.143266e-06 	 2.414628e+03 	 2.927075e+04 	 9.403064e+08 	 3.681330e+21 	 5.840063e+08 	 5.942688e+38 	 3.885877e+38 	 8.511853e+21 	 2.439768e+09
1.20124983e+01 	 4.194853e-06 	 2.410996e+03 	 2.891032e+04 	 9.374803e+08 	 3.631574e+21 	 5.759447e+08 	 5.942662e+38 	 3.885875e+38 	 8.401070e+21 	 2.413813e+09
1.20125845e+01 	 4.247081e-06 	 2.407371e+03 	 2.855433e+04 	 9.346634e+08 	 3.582508e+21 	 5.679947e+08 	 5.942637e+38 	 3.885873e+38 	 8.291770e+21 	 2.388129e+09
1.20126706e+01 	 4.299961e-06 	 2.403753e+03 	 2.820272e+04 	 9.318556e+08 	 3.534121e+21 	 5.601547e+08 	 5.942611e+38 	 3.885871e+38 	 8.183932e+21 	 2.362714e+09
1.20127565e+01 	 4.353498e-06 	 2.400140e+03 	 2.785544e+04 	 9.290568e+08 	 3.486403e+21 	 5.524232e+08 	 5.942586e+38 	 3.885869e+38 	 8.077537e+21 	 2.337566e+09
1.20128424e+01 	 4.407703e-06 	 2.396534e+03 	 2.751244e+04 	 9.262671e+08 	 3.439347e+21 	 5.447987e+08 	 5.942560e+38 	 3.885867e+38 	 7.972565e+21 	 2.312680e+09
1.20129280e+01 	 4.462582e-06 	 2.392934e+03 	 2.717366e+04 	 9.234864e+08 	 3.392942e+21 	 5.372798e+08 	 5.942535e+38 	 3.885865e+38 	 7.868997e+21 	 2.288056e+09
1.20130136e+01 	 4.518145e-06 	 2.389340e+03 	 2.683906e+04 	 9.207147e+08 	 3.347179e+21 	 5.298649e+08 	 5.942510e+38 	 3.885863e+38 	 7.766814e+21 	 2.263689e+09
1.20130990e+01 	 4.574399e-06 	 2.385753e+03 	 2.650857e+04 	 9.179521e+08 	 3.302050e+21 	 5.225525e+08 	 5.942484e+38 	 3.885861e+38 	 7.665997e+21 	 2.239577e+09
1.20131843e+01 	 4.631354e-06 	 2.382172e+03 	 2.618216e+04 	 9.151983e+08 	 3.257545e+21 	 5.153414e+08 	 5.942459e+38 	 3.885859e+38 	 7.566526e+21 	 2.215717e+09
1.20132695e+01 	 4.689019e-06 	 2.378597e+03 	 2.585976e+04 	 9.124535e+08 	 3.213655e+21 	 5.082301e+08 	 5.942434e+38 	 3.885857e+38 	 7.468384e+21 	 2.192108e+09
1.20133545e+01 	 4.747401e-06 	 2.375028e+03 	 2.554133e+04 	 9.097176e+08 	 3.170372e+21 	 5.012171e+08 	 5.942409e+38 	 3.885855e+38 	 7.371552e+21 	 2.168746e+09
1.20134394e+01 	 4.806511e-06 	 2.371466e+03 	 2.522683e+04 	 9.069905e+08 	 3.127686e+21 	 4.943012e+08 	 5.942383e+38 	 3.885854e+38 	 7.276013e+21 	 2.145629e+09
1.20135242e+01 	 4.866357e-06 	 2.367909e+03 	 2.491619e+04 	 9.042723e+08 	 3.085591e+21 	 4.874810e+08 	 5.942358e+38 	 3.885852e+38 	 7.181748e+21 	 2.122754e+09
