r (km)        	 u (km/s)    	 cs (km/s)   	 rho (g/cm3) 	 T (K)       	 P (dyne/cm2) 	 phi         	 L (erg/s)   	 L* (erg/s)  	 E (erg)     	 tau        
1.20141661e+01 	 8.912555e-07 	 1.519417e+03 	 1.712501e+05 	 1.116978e+09 	 1.593736e+22 	 1.704773e+09 	 6.068514e+38 	 3.968460e+38 	 3.051028e+22 	 1.291736e+10
1.20141962e+01 	 9.017269e-07 	 1.517254e+03 	 1.692605e+05 	 1.113799e+09 	 1.571821e+22 	 1.682577e+09 	 6.068505e+38 	 3.968460e+38 	 3.009922e+22 	 1.278879e+10
1.20142263e+01 	 9.123214e-07 	 1.515094e+03 	 1.672940e+05 	 1.110631e+09 	 1.550212e+22 	 1.660671e+09 	 6.068497e+38 	 3.968460e+38 	 2.969387e+22 	 1.266147e+10
1.20142563e+01 	 9.230404e-07 	 1.512938e+03 	 1.653503e+05 	 1.107472e+09 	 1.528907e+22 	 1.639050e+09 	 6.068489e+38 	 3.968460e+38 	 2.929415e+22 	 1.253541e+10
1.20142863e+01 	 9.338853e-07 	 1.510785e+03 	 1.634292e+05 	 1.104322e+09 	 1.507899e+22 	 1.617711e+09 	 6.068481e+38 	 3.968459e+38 	 2.889997e+22 	 1.241058e+10
1.20143162e+01 	 9.448577e-07 	 1.508636e+03 	 1.615304e+05 	 1.101182e+09 	 1.487186e+22 	 1.596650e+09 	 6.068473e+38 	 3.968459e+38 	 2.851127e+22 	 1.228698e+10
1.20143461e+01 	 9.559589e-07 	 1.506490e+03 	 1.596537e+05 	 1.098052e+09 	 1.466762e+22 	 1.575864e+09 	 6.068464e+38 	 3.968459e+38 	 2.812795e+22 	 1.216458e+10
1.20143760e+01 	 9.671906e-07 	 1.504348e+03 	 1.577988e+05 	 1.094931e+09 	 1.446624e+22 	 1.555349e+09 	 6.068456e+38 	 3.968459e+38 	 2.774995e+22 	 1.204339e+10
1.20144058e+01 	 9.785543e-07 	 1.502209e+03 	 1.559655e+05 	 1.091820e+09 	 1.426767e+22 	 1.535102e+09 	 6.068448e+38 	 3.968459e+38 	 2.737719e+22 	 1.192338e+10
1.20144355e+01 	 9.900515e-07 	 1.500073e+03 	 1.541534e+05 	 1.088718e+09 	 1.407188e+22 	 1.515118e+09 	 6.068440e+38 	 3.968459e+38 	 2.700959e+22 	 1.180455e+10
1.20144652e+01 	 1.001684e-06 	 1.497941e+03 	 1.523624e+05 	 1.085625e+09 	 1.387883e+22 	 1.495395e+09 	 6.068432e+38 	 3.968459e+38 	 2.664707e+22 	 1.168689e+10
1.20144949e+01 	 1.013453e-06 	 1.495813e+03 	 1.505922e+05 	 1.082542e+09 	 1.368847e+22 	 1.475929e+09 	 6.068424e+38 	 3.968458e+38 	 2.628958e+22 	 1.157038e+10
1.20145245e+01 	 1.025360e-06 	 1.493687e+03 	 1.488426e+05 	 1.079468e+09 	 1.350077e+22 	 1.456717e+09 	 6.068415e+38 	 3.968458e+38 	 2.593702e+22 	 1.145501e+10
1.20145541e+01 	 1.037407e-06 	 1.491566e+03 	 1.471133e+05 	 1.076403e+09 	 1.331570e+22 	 1.437755e+09 	 6.068407e+38 	 3.968458e+38 	 2.558935e+22 	 1.134078e+10
1.20145836e+01 	 1.049596e-06 	 1.489447e+03 	 1.454041e+05 	 1.073348e+09 	 1.313320e+22 	 1.419041e+09 	 6.068399e+38 	 3.968458e+38 	 2.524647e+22 	 1.122766e+10
1.20146131e+01 	 1.061928e-06 	 1.487332e+03 	 1.437148e+05 	 1.070302e+09 	 1.295326e+22 	 1.400570e+09 	 6.068391e+38 	 3.968458e+38 	 2.490834e+22 	 1.111566e+10
1.20146425e+01 	 1.074405e-06 	 1.485221e+03 	 1.420451e+05 	 1.067265e+09 	 1.277583e+22 	 1.382341e+09 	 6.068383e+38 	 3.968458e+38 	 2.457487e+22 	 1.100475e+10
1.20146719e+01 	 1.087028e-06 	 1.483113e+03 	 1.403947e+05 	 1.064238e+09 	 1.260087e+22 	 1.364349e+09 	 6.068375e+38 	 3.968458e+38 	 2.424601e+22 	 1.089494e+10
1.20147013e+01 	 1.099800e-06 	 1.481008e+03 	 1.387636e+05 	 1.061219e+09 	 1.242836e+22 	 1.346591e+09 	 6.068367e+38 	 3.968457e+38 	 2.392168e+22 	 1.078620e+10
1.20147306e+01 	 1.112722e-06 	 1.478907e+03 	 1.371514e+05 	 1.058210e+09 	 1.225825e+22 	 1.329065e+09 	 6.068359e+38 	 3.968457e+38 	 2.360182e+22 	 1.067853e+10
1.20147598e+01 	 1.125795e-06 	 1.476809e+03 	 1.355579e+05 	 1.055210e+09 	 1.209051e+22 	 1.311767e+09 	 6.068351e+38 	 3.968457e+38 	 2.328637e+22 	 1.057192e+10
1.20147890e+01 	 1.139023e-06 	 1.474714e+03 	 1.339830e+05 	 1.052219e+09 	 1.192511e+22 	 1.294695e+09 	 6.068343e+38 	 3.968457e+38 	 2.297527e+22 	 1.046635e+10
1.20148182e+01 	 1.152405e-06 	 1.472623e+03 	 1.324263e+05 	 1.049237e+09 	 1.176201e+22 	 1.277846e+09 	 6.068335e+38 	 3.968457e+38 	 2.266846e+22 	 1.036182e+10
1.20148473e+01 	 1.165945e-06 	 1.470535e+03 	 1.308878e+05 	 1.046264e+09 	 1.160119e+22 	 1.261216e+09 	 6.068327e+38 	 3.968457e+38 	 2.236587e+22 	 1.025832e+10
1.20148764e+01 	 1.179644e-06 	 1.468451e+03 	 1.293671e+05 	 1.043300e+09 	 1.144261e+22 	 1.244803e+09 	 6.068319e+38 	 3.968456e+38 	 2.206744e+22 	 1.015584e+10
1.20149055e+01 	 1.193504e-06 	 1.466370e+03 	 1.278641e+05 	 1.040345e+09 	 1.128624e+22 	 1.228603e+09 	 6.068311e+38 	 3.968456e+38 	 2.177312e+22 	 1.005436e+10
1.20149345e+01 	 1.207527e-06 	 1.464292e+03 	 1.263785e+05 	 1.037399e+09 	 1.113205e+22 	 1.212615e+09 	 6.068303e+38 	 3.968456e+38 	 2.148285e+22 	 9.953883e+09
1.20149634e+01 	 1.221715e-06 	 1.462218e+03 	 1.249102e+05 	 1.034462e+09 	 1.098000e+22 	 1.196836e+09 	 6.068295e+38 	 3.968456e+38 	 2.119656e+22 	 9.854392e+09
1.20149923e+01 	 1.236069e-06 	 1.460147e+03 	 1.234590e+05 	 1.031534e+09 	 1.083007e+22 	 1.181261e+09 	 6.068287e+38 	 3.968456e+38 	 2.091421e+22 	 9.755879e+09
1.20150212e+01 	 1.250592e-06 	 1.458079e+03 	 1.220246e+05 	 1.028615e+09 	 1.068222e+22 	 1.165890e+09 	 6.068279e+38 	 3.968456e+38 	 2.063574e+22 	 9.658336e+09
1.20150500e+01 	 1.265286e-06 	 1.456015e+03 	 1.206069e+05 	 1.025704e+09 	 1.053644e+22 	 1.150720e+09 	 6.068271e+38 	 3.968455e+38 	 2.036109e+22 	 9.561752e+09
1.20150788e+01 	 1.280152e-06 	 1.453954e+03 	 1.192056e+05 	 1.022803e+09 	 1.039268e+22 	 1.135747e+09 	 6.068263e+38 	 3.968455e+38 	 2.009021e+22 	 9.466118e+09
1.20151075e+01 	 1.295193e-06 	 1.451897e+03 	 1.178207e+05 	 1.019910e+09 	 1.025091e+22 	 1.120969e+09 	 6.068255e+38 	 3.968455e+38 	 1.982304e+22 	 9.371425e+09
1.20151362e+01 	 1.310411e-06 	 1.449842e+03 	 1.164518e+05 	 1.017026e+09 	 1.011112e+22 	 1.106384e+09 	 6.068247e+38 	 3.968455e+38 	 1.955954e+22 	 9.277664e+09
1.20151649e+01 	 1.325807e-06 	 1.447792e+03 	 1.150988e+05 	 1.014151e+09 	 9.973277e+21 	 1.091988e+09 	 6.068239e+38 	 3.968455e+38 	 1.929965e+22 	 9.184826e+09
1.20151935e+01 	 1.341385e-06 	 1.445744e+03 	 1.137616e+05 	 1.011284e+09 	 9.837345e+21 	 1.077781e+09 	 6.068231e+38 	 3.968454e+38 	 1.904331e+22 	 9.092902e+09
1.20152221e+01 	 1.357145e-06 	 1.443700e+03 	 1.124399e+05 	 1.008426e+09 	 9.703302e+21 	 1.063758e+09 	 6.068223e+38 	 3.968454e+38 	 1.879049e+22 	 9.001883e+09
1.20152506e+01 	 1.373091e-06 	 1.441659e+03 	 1.111335e+05 	 1.005577e+09 	 9.571121e+21 	 1.049919e+09 	 6.068215e+38 	 3.968454e+38 	 1.854113e+22 	 8.911760e+09
1.20152791e+01 	 1.389224e-06 	 1.439621e+03 	 1.098423e+05 	 1.002736e+09 	 9.440775e+21 	 1.036259e+09 	 6.068207e+38 	 3.968454e+38 	 1.829518e+22 	 8.822525e+09
1.20153075e+01 	 1.405546e-06 	 1.437587e+03 	 1.085661e+05 	 9.999046e+08 	 9.312239e+21 	 1.022778e+09 	 6.068199e+38 	 3.968454e+38 	 1.805259e+22 	 8.734169e+09
1.20153359e+01 	 1.422061e-06 	 1.435556e+03 	 1.073048e+05 	 9.970812e+08 	 9.185486e+21 	 1.009472e+09 	 6.068191e+38 	 3.968453e+38 	 1.781332e+22 	 8.646684e+09
1.20153643e+01 	 1.438769e-06 	 1.433528e+03 	 1.060581e+05 	 9.942665e+08 	 9.060493e+21 	 9.963402e+08 	 6.068183e+38 	 3.968453e+38 	 1.757732e+22 	 8.560060e+09
1.20153926e+01 	 1.455674e-06 	 1.431504e+03 	 1.048259e+05 	 9.914603e+08 	 8.937234e+21 	 9.833791e+08 	 6.068175e+38 	 3.968453e+38 	 1.734455e+22 	 8.474291e+09
1.20154209e+01 	 1.472777e-06 	 1.429483e+03 	 1.036080e+05 	 9.886626e+08 	 8.815685e+21 	 9.705868e+08 	 6.068167e+38 	 3.968453e+38 	 1.711495e+22 	 8.389366e+09
1.20154492e+01 	 1.490082e-06 	 1.427465e+03 	 1.024042e+05 	 9.858734e+08 	 8.695821e+21 	 9.579613e+08 	 6.068160e+38 	 3.968453e+38 	 1.688849e+22 	 8.305279e+09
1.20154774e+01 	 1.507589e-06 	 1.425450e+03 	 1.012145e+05 	 9.830927e+08 	 8.577619e+21 	 9.455002e+08 	 6.068152e+38 	 3.968452e+38 	 1.666511e+22 	 8.222021e+09
1.20155055e+01 	 1.525303e-06 	 1.423439e+03 	 1.000385e+05 	 9.803203e+08 	 8.461055e+21 	 9.332016e+08 	 6.068144e+38 	 3.968452e+38 	 1.644478e+22 	 8.139584e+09
1.20155336e+01 	 1.543224e-06 	 1.421431e+03 	 9.887627e+04 	 9.775564e+08 	 8.346106e+21 	 9.210631e+08 	 6.068136e+38 	 3.968452e+38 	 1.622745e+22 	 8.057961e+09
1.20155617e+01 	 1.561356e-06 	 1.419426e+03 	 9.772750e+04 	 9.748009e+08 	 8.232750e+21 	 9.090828e+08 	 6.068128e+38 	 3.968452e+38 	 1.601309e+22 	 7.977142e+09
1.20155898e+01 	 1.579701e-06 	 1.417425e+03 	 9.659207e+04 	 9.720537e+08 	 8.120964e+21 	 8.972587e+08 	 6.068120e+38 	 3.968451e+38 	 1.580165e+22 	 7.897121e+09
1.20156178e+01 	 1.598262e-06 	 1.415426e+03 	 9.546984e+04 	 9.693150e+08 	 8.010727e+21 	 8.855886e+08 	 6.068112e+38 	 3.968451e+38 	 1.559308e+22 	 7.817889e+09
1.20156457e+01 	 1.617041e-06 	 1.413431e+03 	 9.436065e+04 	 9.665845e+08 	 7.902016e+21 	 8.740705e+08 	 6.068105e+38 	 3.968451e+38 	 1.538736e+22 	 7.739439e+09
1.20156737e+01 	 1.636040e-06 	 1.411440e+03 	 9.326434e+04 	 9.638623e+08 	 7.794809e+21 	 8.627026e+08 	 6.068097e+38 	 3.968451e+38 	 1.518443e+22 	 7.661764e+09
1.20157015e+01 	 1.655263e-06 	 1.409451e+03 	 9.218077e+04 	 9.611484e+08 	 7.689086e+21 	 8.514827e+08 	 6.068089e+38 	 3.968451e+38 	 1.498426e+22 	 7.584855e+09
1.20157294e+01 	 1.674712e-06 	 1.407466e+03 	 9.110979e+04 	 9.584428e+08 	 7.584826e+21 	 8.404090e+08 	 6.068081e+38 	 3.968450e+38 	 1.478682e+22 	 7.508706e+09
1.20157572e+01 	 1.694389e-06 	 1.405484e+03 	 9.005125e+04 	 9.557453e+08 	 7.482009e+21 	 8.294796e+08 	 6.068073e+38 	 3.968450e+38 	 1.459206e+22 	 7.433309e+09
1.20157850e+01 	 1.714297e-06 	 1.403505e+03 	 8.900501e+04 	 9.530561e+08 	 7.380612e+21 	 8.186925e+08 	 6.068066e+38 	 3.968450e+38 	 1.439994e+22 	 7.358656e+09
1.20158127e+01 	 1.734439e-06 	 1.401530e+03 	 8.797092e+04 	 9.503750e+08 	 7.280618e+21 	 8.080460e+08 	 6.068058e+38 	 3.968450e+38 	 1.421043e+22 	 7.284741e+09
1.20158404e+01 	 1.754818e-06 	 1.399557e+03 	 8.694885e+04 	 9.477020e+08 	 7.182006e+21 	 7.975382e+08 	 6.068050e+38 	 3.968449e+38 	 1.402349e+22 	 7.211557e+09
1.20158680e+01 	 1.775437e-06 	 1.397588e+03 	 8.593866e+04 	 9.450372e+08 	 7.084757e+21 	 7.871673e+08 	 6.068042e+38 	 3.968449e+38 	 1.383909e+22 	 7.139095e+09
1.20158957e+01 	 1.796297e-06 	 1.395622e+03 	 8.494020e+04 	 9.423804e+08 	 6.988851e+21 	 7.769314e+08 	 6.068035e+38 	 3.968449e+38 	 1.365719e+22 	 7.067350e+09
1.20159232e+01 	 1.817403e-06 	 1.393660e+03 	 8.395334e+04 	 9.397318e+08 	 6.894270e+21 	 7.668290e+08 	 6.068027e+38 	 3.968449e+38 	 1.347776e+22 	 6.996313e+09
1.20159508e+01 	 1.838757e-06 	 1.391700e+03 	 8.297795e+04 	 9.370911e+08 	 6.800995e+21 	 7.568581e+08 	 6.068019e+38 	 3.968448e+38 	 1.330075e+22 	 6.925980e+09
1.20159783e+01 	 1.860361e-06 	 1.389744e+03 	 8.201389e+04 	 9.344585e+08 	 6.709008e+21 	 7.470171e+08 	 6.068011e+38 	 3.968448e+38 	 1.312615e+22 	 6.856341e+09
1.20160057e+01 	 1.882220e-06 	 1.387791e+03 	 8.106103e+04 	 9.318339e+08 	 6.618290e+21 	 7.373043e+08 	 6.068004e+38 	 3.968448e+38 	 1.295391e+22 	 6.787392e+09
1.20160332e+01 	 1.904335e-06 	 1.385841e+03 	 8.011924e+04 	 9.292173e+08 	 6.528825e+21 	 7.277180e+08 	 6.067996e+38 	 3.968448e+38 	 1.278400e+22 	 6.719124e+09
1.20160605e+01 	 1.926710e-06 	 1.383895e+03 	 7.918839e+04 	 9.266086e+08 	 6.440594e+21 	 7.182565e+08 	 6.067988e+38 	 3.968447e+38 	 1.261639e+22 	 6.651531e+09
1.20160879e+01 	 1.949349e-06 	 1.381951e+03 	 7.826836e+04 	 9.240078e+08 	 6.353579e+21 	 7.089184e+08 	 6.067980e+38 	 3.968447e+38 	 1.245104e+22 	 6.584608e+09
1.20161152e+01 	 1.972253e-06 	 1.380011e+03 	 7.735902e+04 	 9.214150e+08 	 6.267765e+21 	 6.997018e+08 	 6.067973e+38 	 3.968447e+38 	 1.228793e+22 	 6.518347e+09
1.20161425e+01 	 1.995426e-06 	 1.378074e+03 	 7.646024e+04 	 9.188300e+08 	 6.183133e+21 	 6.906053e+08 	 6.067965e+38 	 3.968447e+38 	 1.212703e+22 	 6.452741e+09
1.20161697e+01 	 2.018872e-06 	 1.376140e+03 	 7.557190e+04 	 9.162528e+08 	 6.099669e+21 	 6.816272e+08 	 6.067957e+38 	 3.968446e+38 	 1.196829e+22 	 6.387785e+09
1.20161969e+01 	 2.042593e-06 	 1.374209e+03 	 7.469389e+04 	 9.136836e+08 	 6.017354e+21 	 6.727662e+08 	 6.067950e+38 	 3.968446e+38 	 1.181171e+22 	 6.323472e+09
1.20162241e+01 	 2.066592e-06 	 1.372281e+03 	 7.382607e+04 	 9.111221e+08 	 5.936174e+21 	 6.640205e+08 	 6.067942e+38 	 3.968446e+38 	 1.165723e+22 	 6.259796e+09
1.20162512e+01 	 2.090874e-06 	 1.370357e+03 	 7.296834e+04 	 9.085684e+08 	 5.856112e+21 	 6.553887e+08 	 6.067934e+38 	 3.968445e+38 	 1.150484e+22 	 6.196751e+09
1.20162783e+01 	 2.115441e-06 	 1.368435e+03 	 7.212057e+04 	 9.060224e+08 	 5.777151e+21 	 6.468693e+08 	 6.067927e+38 	 3.968445e+38 	 1.135450e+22 	 6.134330e+09
1.20163054e+01 	 2.140297e-06 	 1.366517e+03 	 7.128266e+04 	 9.034842e+08 	 5.699278e+21 	 6.384609e+08 	 6.067919e+38 	 3.968445e+38 	 1.120619e+22 	 6.072528e+09
1.20163324e+01 	 2.165445e-06 	 1.364602e+03 	 7.045448e+04 	 9.009537e+08 	 5.622477e+21 	 6.301620e+08 	 6.067911e+38 	 3.968445e+38 	 1.105988e+22 	 6.011338e+09
1.20163594e+01 	 2.190888e-06 	 1.362690e+03 	 6.963592e+04 	 8.984309e+08 	 5.546733e+21 	 6.219711e+08 	 6.067904e+38 	 3.968444e+38 	 1.091554e+22 	 5.950754e+09
1.20163864e+01 	 2.216630e-06 	 1.360782e+03 	 6.882687e+04 	 8.959158e+08 	 5.472032e+21 	 6.138870e+08 	 6.067896e+38 	 3.968444e+38 	 1.077315e+22 	 5.890771e+09
1.20164133e+01 	 2.242675e-06 	 1.358876e+03 	 6.802722e+04 	 8.934083e+08 	 5.398357e+21 	 6.059081e+08 	 6.067888e+38 	 3.968444e+38 	 1.063267e+22 	 5.831382e+09
1.20164402e+01 	 2.269026e-06 	 1.356974e+03 	 6.723686e+04 	 8.909085e+08 	 5.325696e+21 	 5.980331e+08 	 6.067881e+38 	 3.968443e+38 	 1.049408e+22 	 5.772583e+09
1.20164670e+01 	 2.295686e-06 	 1.355074e+03 	 6.645568e+04 	 8.884163e+08 	 5.254034e+21 	 5.902607e+08 	 6.067873e+38 	 3.968443e+38 	 1.035736e+22 	 5.714366e+09
1.20164938e+01 	 2.322660e-06 	 1.353178e+03 	 6.568358e+04 	 8.859316e+08 	 5.183357e+21 	 5.825895e+08 	 6.067866e+38 	 3.968443e+38 	 1.022247e+22 	 5.656727e+09
1.20165206e+01 	 2.349951e-06 	 1.351285e+03 	 6.492045e+04 	 8.834545e+08 	 5.113651e+21 	 5.750181e+08 	 6.067858e+38 	 3.968443e+38 	 1.008940e+22 	 5.599659e+09
1.20165473e+01 	 2.377562e-06 	 1.349395e+03 	 6.416619e+04 	 8.809850e+08 	 5.044902e+21 	 5.675454e+08 	 6.067850e+38 	 3.968442e+38 	 9.958112e+21 	 5.543158e+09
1.20165741e+01 	 2.405498e-06 	 1.347508e+03 	 6.342069e+04 	 8.785229e+08 	 4.977098e+21 	 5.601700e+08 	 6.067843e+38 	 3.968442e+38 	 9.828589e+21 	 5.487217e+09
1.20166007e+01 	 2.433762e-06 	 1.345624e+03 	 6.268385e+04 	 8.760684e+08 	 4.910225e+21 	 5.528906e+08 	 6.067835e+38 	 3.968442e+38 	 9.700805e+21 	 5.431832e+09
1.20166274e+01 	 2.462358e-06 	 1.343744e+03 	 6.195557e+04 	 8.736213e+08 	 4.844270e+21 	 5.457059e+08 	 6.067828e+38 	 3.968441e+38 	 9.574735e+21 	 5.376996e+09
1.20166540e+01 	 2.491290e-06 	 1.341866e+03 	 6.123576e+04 	 8.711817e+08 	 4.779220e+21 	 5.386149e+08 	 6.067820e+38 	 3.968441e+38 	 9.450357e+21 	 5.322705e+09
1.20166806e+01 	 2.520562e-06 	 1.339992e+03 	 6.052430e+04 	 8.687494e+08 	 4.715063e+21 	 5.316161e+08 	 6.067812e+38 	 3.968441e+38 	 9.327647e+21 	 5.268953e+09
1.20167071e+01 	 2.550178e-06 	 1.338120e+03 	 5.982111e+04 	 8.663246e+08 	 4.651786e+21 	 5.247085e+08 	 6.067805e+38 	 3.968440e+38 	 9.206581e+21 	 5.215735e+09
1.20167336e+01 	 2.580142e-06 	 1.336252e+03 	 5.912610e+04 	 8.639071e+08 	 4.589376e+21 	 5.178908e+08 	 6.067797e+38 	 3.968440e+38 	 9.087137e+21 	 5.163045e+09
1.20167601e+01 	 2.610459e-06 	 1.334387e+03 	 5.843915e+04 	 8.614971e+08 	 4.527823e+21 	 5.111619e+08 	 6.067790e+38 	 3.968440e+38 	 8.969292e+21 	 5.110879e+09
1.20167865e+01 	 2.641131e-06 	 1.332525e+03 	 5.776019e+04 	 8.590943e+08 	 4.467113e+21 	 5.045206e+08 	 6.067782e+38 	 3.968439e+38 	 8.853026e+21 	 5.059231e+09
1.20168129e+01 	 2.672164e-06 	 1.330666e+03 	 5.708912e+04 	 8.566989e+08 	 4.407236e+21 	 4.979657e+08 	 6.067775e+38 	 3.968439e+38 	 8.738316e+21 	 5.008097e+09
1.20168393e+01 	 2.703561e-06 	 1.328810e+03 	 5.642584e+04 	 8.543107e+08 	 4.348178e+21 	 4.914962e+08 	 6.067767e+38 	 3.968439e+38 	 8.625139e+21 	 4.957470e+09
1.20168656e+01 	 2.735328e-06 	 1.326957e+03 	 5.577027e+04 	 8.519299e+08 	 4.289930e+21 	 4.851109e+08 	 6.067760e+38 	 3.968439e+38 	 8.513476e+21 	 4.907347e+09
1.20168919e+01 	 2.767467e-06 	 1.325107e+03 	 5.512232e+04 	 8.495562e+08 	 4.232479e+21 	 4.788087e+08 	 6.067752e+38 	 3.968438e+38 	 8.403306e+21 	 4.857723e+09
1.20169182e+01 	 2.799984e-06 	 1.323260e+03 	 5.448189e+04 	 8.471898e+08 	 4.175815e+21 	 4.725886e+08 	 6.067745e+38 	 3.968438e+38 	 8.294608e+21 	 4.808591e+09
1.20169444e+01 	 2.832884e-06 	 1.321416e+03 	 5.384890e+04 	 8.448306e+08 	 4.119927e+21 	 4.664494e+08 	 6.067737e+38 	 3.968438e+38 	 8.187362e+21 	 4.759949e+09
1.20169706e+01 	 2.866170e-06 	 1.319576e+03 	 5.322327e+04 	 8.424786e+08 	 4.064804e+21 	 4.603902e+08 	 6.067730e+38 	 3.968437e+38 	 8.081548e+21 	 4.711790e+09
1.20169968e+01 	 2.899847e-06 	 1.317738e+03 	 5.260491e+04 	 8.401337e+08 	 4.010434e+21 	 4.544098e+08 	 6.067722e+38 	 3.968437e+38 	 7.977145e+21 	 4.664111e+09
1.20170230e+01 	 2.933920e-06 	 1.315903e+03 	 5.199373e+04 	 8.377960e+08 	 3.956809e+21 	 4.485073e+08 	 6.067715e+38 	 3.968437e+38 	 7.874135e+21 	 4.616906e+09
1.20170491e+01 	 2.968393e-06 	 1.314072e+03 	 5.138965e+04 	 8.354654e+08 	 3.903916e+21 	 4.426816e+08 	 6.067707e+38 	 3.968436e+38 	 7.772499e+21 	 4.570171e+09
1.20170751e+01 	 3.003271e-06 	 1.312243e+03 	 5.079259e+04 	 8.331419e+08 	 3.851747e+21 	 4.369317e+08 	 6.067700e+38 	 3.968436e+38 	 7.672218e+21 	 4.523901e+09
1.20171012e+01 	 3.038559e-06 	 1.310418e+03 	 5.020247e+04 	 8.308255e+08 	 3.800291e+21 	 4.312567e+08 	 6.067692e+38 	 3.968436e+38 	 7.573274e+21 	 4.478091e+09
1.20171272e+01 	 3.074262e-06 	 1.308595e+03 	 4.961921e+04 	 8.285161e+08 	 3.749539e+21 	 4.256555e+08 	 6.067685e+38 	 3.968435e+38 	 7.475649e+21 	 4.432738e+09
1.20171532e+01 	 3.110384e-06 	 1.306776e+03 	 4.904272e+04 	 8.262138e+08 	 3.699479e+21 	 4.201272e+08 	 6.067677e+38 	 3.968435e+38 	 7.379323e+21 	 4.387836e+09
1.20171791e+01 	 3.146931e-06 	 1.304959e+03 	 4.847293e+04 	 8.239185e+08 	 3.650104e+21 	 4.146709e+08 	 6.067670e+38 	 3.968435e+38 	 7.284279e+21 	 4.343382e+09
1.20172051e+01 	 3.183907e-06 	 1.303146e+03 	 4.790975e+04 	 8.216302e+08 	 3.601403e+21 	 4.092856e+08 	 6.067662e+38 	 3.968434e+38 	 7.190500e+21 	 4.299370e+09
1.20172310e+01 	 3.221318e-06 	 1.301335e+03 	 4.735313e+04 	 8.193489e+08 	 3.553366e+21 	 4.039704e+08 	 6.067655e+38 	 3.968434e+38 	 7.097969e+21 	 4.255797e+09
1.20172568e+01 	 3.259168e-06 	 1.299528e+03 	 4.680296e+04 	 8.170745e+08 	 3.505985e+21 	 3.987244e+08 	 6.067647e+38 	 3.968433e+38 	 7.006667e+21 	 4.212659e+09
1.20172826e+01 	 3.297463e-06 	 1.297724e+03 	 4.625919e+04 	 8.148071e+08 	 3.459251e+21 	 3.935467e+08 	 6.067640e+38 	 3.968433e+38 	 6.916579e+21 	 4.169950e+09
1.20173084e+01 	 3.336208e-06 	 1.295922e+03 	 4.572174e+04 	 8.125466e+08 	 3.413154e+21 	 3.884363e+08 	 6.067633e+38 	 3.968433e+38 	 6.827688e+21 	 4.127667e+09
1.20173342e+01 	 3.375408e-06 	 1.294124e+03 	 4.519053e+04 	 8.102929e+08 	 3.367686e+21 	 3.833924e+08 	 6.067625e+38 	 3.968432e+38 	 6.739978e+21 	 4.085806e+09
1.20173599e+01 	 3.415069e-06 	 1.292328e+03 	 4.466550e+04 	 8.080462e+08 	 3.322838e+21 	 3.784142e+08 	 6.067618e+38 	 3.968432e+38 	 6.653432e+21 	 4.044362e+09
1.20173857e+01 	 3.455196e-06 	 1.290536e+03 	 4.414656e+04 	 8.058063e+08 	 3.278602e+21 	 3.735007e+08 	 6.067610e+38 	 3.968432e+38 	 6.568034e+21 	 4.003331e+09
1.20174113e+01 	 3.495794e-06 	 1.288747e+03 	 4.363366e+04 	 8.035732e+08 	 3.234968e+21 	 3.686512e+08 	 6.067603e+38 	 3.968431e+38 	 6.483769e+21 	 3.962710e+09
1.20174370e+01 	 3.536869e-06 	 1.286960e+03 	 4.312671e+04 	 8.013469e+08 	 3.191929e+21 	 3.638648e+08 	 6.067596e+38 	 3.968431e+38 	 6.400622e+21 	 3.922494e+09
1.20174626e+01 	 3.578427e-06 	 1.285177e+03 	 4.262565e+04 	 7.991274e+08 	 3.149476e+21 	 3.591407e+08 	 6.067588e+38 	 3.968431e+38 	 6.318576e+21 	 3.882679e+09
