r (km)        	 u (km/s)    	 cs (km/s)   	 rho (g/cm3) 	 T (K)       	 P (dyne/cm2) 	 phi         	 L (erg/s)   	 L* (erg/s)  	 E (erg)     	 tau        
1.19998692e+01 	 1.262149e-06 	 2.841267e+03 	 1.080671e+05 	 1.301947e+09 	 1.601598e+22 	 2.264391e+09 	 6.005750e+38 	 3.924940e+38 	 3.528224e+22 	 7.433093e+09
1.19999731e+01 	 1.277735e-06 	 2.836943e+03 	 1.067468e+05 	 1.297987e+09 	 1.579432e+22 	 2.233243e+09 	 6.005719e+38 	 3.924938e+38 	 3.480917e+22 	 7.356047e+09
1.20000768e+01 	 1.293513e-06 	 2.832627e+03 	 1.054426e+05 	 1.294040e+09 	 1.557578e+22 	 2.202525e+09 	 6.005688e+38 	 3.924935e+38 	 3.434263e+22 	 7.279786e+09
1.20001803e+01 	 1.309487e-06 	 2.828318e+03 	 1.041544e+05 	 1.290106e+09 	 1.536033e+22 	 2.172231e+09 	 6.005657e+38 	 3.924933e+38 	 3.388251e+22 	 7.204303e+09
1.20002836e+01 	 1.325658e-06 	 2.824016e+03 	 1.028819e+05 	 1.286185e+09 	 1.514792e+22 	 2.142356e+09 	 6.005626e+38 	 3.924931e+38 	 3.342874e+22 	 7.129591e+09
1.20003867e+01 	 1.342028e-06 	 2.819722e+03 	 1.016249e+05 	 1.282277e+09 	 1.493852e+22 	 2.112893e+09 	 6.005595e+38 	 3.924928e+38 	 3.298121e+22 	 7.055641e+09
1.20004896e+01 	 1.358601e-06 	 2.815435e+03 	 1.003833e+05 	 1.278381e+09 	 1.473207e+22 	 2.083836e+09 	 6.005564e+38 	 3.924926e+38 	 3.253985e+22 	 6.982445e+09
1.20005923e+01 	 1.375379e-06 	 2.811156e+03 	 9.915685e+04 	 1.274497e+09 	 1.452853e+22 	 2.055181e+09 	 6.005533e+38 	 3.924924e+38 	 3.210456e+22 	 6.909996e+09
1.20006948e+01 	 1.392363e-06 	 2.806884e+03 	 9.794539e+04 	 1.270627e+09 	 1.432787e+22 	 2.026921e+09 	 6.005503e+38 	 3.924921e+38 	 3.167526e+22 	 6.838288e+09
1.20007972e+01 	 1.409558e-06 	 2.802619e+03 	 9.674873e+04 	 1.266768e+09 	 1.413004e+22 	 1.999051e+09 	 6.005472e+38 	 3.924919e+38 	 3.125186e+22 	 6.767311e+09
1.20008993e+01 	 1.426965e-06 	 2.798361e+03 	 9.556670e+04 	 1.262922e+09 	 1.393499e+22 	 1.971566e+09 	 6.005442e+38 	 3.924917e+38 	 3.083428e+22 	 6.697059e+09
1.20010012e+01 	 1.444587e-06 	 2.794111e+03 	 9.439910e+04 	 1.259089e+09 	 1.374270e+22 	 1.944459e+09 	 6.005411e+38 	 3.924915e+38 	 3.042244e+22 	 6.627524e+09
1.20011030e+01 	 1.462426e-06 	 2.789868e+03 	 9.324577e+04 	 1.255268e+09 	 1.355312e+22 	 1.917727e+09 	 6.005381e+38 	 3.924912e+38 	 3.001626e+22 	 6.558700e+09
1.20012046e+01 	 1.480486e-06 	 2.785632e+03 	 9.210654e+04 	 1.251459e+09 	 1.336621e+22 	 1.891364e+09 	 6.005350e+38 	 3.924910e+38 	 2.961565e+22 	 6.490579e+09
1.20013059e+01 	 1.498769e-06 	 2.781404e+03 	 9.098122e+04 	 1.247663e+09 	 1.318193e+22 	 1.865364e+09 	 6.005320e+38 	 3.924908e+38 	 2.922054e+22 	 6.423155e+09
1.20014071e+01 	 1.517278e-06 	 2.777183e+03 	 8.986965e+04 	 1.243879e+09 	 1.300025e+22 	 1.839723e+09 	 6.005289e+38 	 3.924905e+38 	 2.883084e+22 	 6.356419e+09
1.20015081e+01 	 1.536015e-06 	 2.772969e+03 	 8.877166e+04 	 1.240107e+09 	 1.282113e+22 	 1.814436e+09 	 6.005259e+38 	 3.924903e+38 	 2.844650e+22 	 6.290366e+09
1.20016089e+01 	 1.554984e-06 	 2.768762e+03 	 8.768708e+04 	 1.236347e+09 	 1.264452e+22 	 1.789497e+09 	 6.005229e+38 	 3.924901e+38 	 2.806742e+22 	 6.224987e+09
1.20017095e+01 	 1.574188e-06 	 2.764562e+03 	 8.661576e+04 	 1.232599e+09 	 1.247040e+22 	 1.764903e+09 	 6.005199e+38 	 3.924899e+38 	 2.769353e+22 	 6.160278e+09
1.20018100e+01 	 1.593628e-06 	 2.760370e+03 	 8.555752e+04 	 1.228864e+09 	 1.229874e+22 	 1.740647e+09 	 6.005169e+38 	 3.924896e+38 	 2.732476e+22 	 6.096230e+09
1.20019102e+01 	 1.613309e-06 	 2.756185e+03 	 8.451222e+04 	 1.225140e+09 	 1.212948e+22 	 1.716726e+09 	 6.005138e+38 	 3.924894e+38 	 2.696105e+22 	 6.032837e+09
1.20020103e+01 	 1.633232e-06 	 2.752007e+03 	 8.347968e+04 	 1.221429e+09 	 1.196261e+22 	 1.693135e+09 	 6.005108e+38 	 3.924892e+38 	 2.660231e+22 	 5.970093e+09
1.20021102e+01 	 1.653402e-06 	 2.747836e+03 	 8.245976e+04 	 1.217729e+09 	 1.179808e+22 	 1.669870e+09 	 6.005079e+38 	 3.924890e+38 	 2.624848e+22 	 5.907991e+09
1.20022099e+01 	 1.673821e-06 	 2.743672e+03 	 8.145230e+04 	 1.214041e+09 	 1.163587e+22 	 1.646925e+09 	 6.005049e+38 	 3.924887e+38 	 2.589949e+22 	 5.846525e+09
1.20023094e+01 	 1.694492e-06 	 2.739515e+03 	 8.045715e+04 	 1.210366e+09 	 1.147593e+22 	 1.624296e+09 	 6.005019e+38 	 3.924885e+38 	 2.555526e+22 	 5.785687e+09
1.20024087e+01 	 1.715419e-06 	 2.735366e+03 	 7.947416e+04 	 1.206702e+09 	 1.131824e+22 	 1.601979e+09 	 6.004989e+38 	 3.924883e+38 	 2.521574e+22 	 5.725473e+09
1.20025078e+01 	 1.736604e-06 	 2.731224e+03 	 7.850318e+04 	 1.203050e+09 	 1.116276e+22 	 1.579970e+09 	 6.004959e+38 	 3.924880e+38 	 2.488087e+22 	 5.665875e+09
1.20026068e+01 	 1.758050e-06 	 2.727088e+03 	 7.754406e+04 	 1.199410e+09 	 1.100947e+22 	 1.558265e+09 	 6.004929e+38 	 3.924878e+38 	 2.455056e+22 	 5.606887e+09
1.20027056e+01 	 1.779762e-06 	 2.722960e+03 	 7.659666e+04 	 1.195781e+09 	 1.085833e+22 	 1.536858e+09 	 6.004900e+38 	 3.924876e+38 	 2.422476e+22 	 5.548504e+09
1.20028042e+01 	 1.801742e-06 	 2.718839e+03 	 7.566083e+04 	 1.192164e+09 	 1.070931e+22 	 1.515747e+09 	 6.004870e+38 	 3.924874e+38 	 2.390340e+22 	 5.490718e+09
1.20029026e+01 	 1.823993e-06 	 2.714725e+03 	 7.473644e+04 	 1.188559e+09 	 1.056237e+22 	 1.494926e+09 	 6.004841e+38 	 3.924871e+38 	 2.358643e+22 	 5.433525e+09
1.20030009e+01 	 1.846519e-06 	 2.710618e+03 	 7.382334e+04 	 1.184965e+09 	 1.041750e+22 	 1.474393e+09 	 6.004811e+38 	 3.924869e+38 	 2.327378e+22 	 5.376918e+09
1.20030990e+01 	 1.869324e-06 	 2.706518e+03 	 7.292140e+04 	 1.181383e+09 	 1.027466e+22 	 1.454142e+09 	 6.004782e+38 	 3.924867e+38 	 2.296539e+22 	 5.320891e+09
1.20031969e+01 	 1.892410e-06 	 2.702425e+03 	 7.203047e+04 	 1.177813e+09 	 1.013383e+22 	 1.434171e+09 	 6.004752e+38 	 3.924865e+38 	 2.266121e+22 	 5.265438e+09
1.20032946e+01 	 1.915781e-06 	 2.698339e+03 	 7.115044e+04 	 1.174254e+09 	 9.994963e+21 	 1.414475e+09 	 6.004723e+38 	 3.924862e+38 	 2.236116e+22 	 5.210554e+09
1.20033921e+01 	 1.939441e-06 	 2.694260e+03 	 7.028115e+04 	 1.170706e+09 	 9.858045e+21 	 1.395050e+09 	 6.004694e+38 	 3.924860e+38 	 2.206520e+22 	 5.156232e+09
1.20034895e+01 	 1.963394e-06 	 2.690188e+03 	 6.942248e+04 	 1.167170e+09 	 9.723045e+21 	 1.375892e+09 	 6.004664e+38 	 3.924858e+38 	 2.177327e+22 	 5.102468e+09
1.20035867e+01 	 1.987642e-06 	 2.686123e+03 	 6.857431e+04 	 1.163646e+09 	 9.589934e+21 	 1.356999e+09 	 6.004635e+38 	 3.924856e+38 	 2.148531e+22 	 5.049255e+09
1.20036837e+01 	 2.012189e-06 	 2.682065e+03 	 6.773650e+04 	 1.160132e+09 	 9.458687e+21 	 1.338366e+09 	 6.004606e+38 	 3.924853e+38 	 2.120127e+22 	 4.996588e+09
1.20037806e+01 	 2.037040e-06 	 2.678014e+03 	 6.690892e+04 	 1.156630e+09 	 9.329276e+21 	 1.319990e+09 	 6.004577e+38 	 3.924851e+38 	 2.092108e+22 	 4.944461e+09
1.20038773e+01 	 2.062198e-06 	 2.673969e+03 	 6.609145e+04 	 1.153140e+09 	 9.201675e+21 	 1.301866e+09 	 6.004548e+38 	 3.924849e+38 	 2.064471e+22 	 4.892870e+09
1.20039738e+01 	 2.087667e-06 	 2.669932e+03 	 6.528398e+04 	 1.149660e+09 	 9.075859e+21 	 1.283993e+09 	 6.004519e+38 	 3.924846e+38 	 2.037209e+22 	 4.841808e+09
1.20040701e+01 	 2.113450e-06 	 2.665902e+03 	 6.448636e+04 	 1.146192e+09 	 8.951803e+21 	 1.266365e+09 	 6.004490e+38 	 3.924844e+38 	 2.010317e+22 	 4.791270e+09
1.20041663e+01 	 2.139552e-06 	 2.661878e+03 	 6.369850e+04 	 1.142735e+09 	 8.829480e+21 	 1.248981e+09 	 6.004461e+38 	 3.924842e+38 	 1.983790e+22 	 4.741251e+09
1.20042623e+01 	 2.165976e-06 	 2.657862e+03 	 6.292025e+04 	 1.139289e+09 	 8.708867e+21 	 1.231836e+09 	 6.004432e+38 	 3.924840e+38 	 1.957622e+22 	 4.691746e+09
1.20043581e+01 	 2.192727e-06 	 2.653852e+03 	 6.215152e+04 	 1.135854e+09 	 8.589938e+21 	 1.214926e+09 	 6.004403e+38 	 3.924837e+38 	 1.931810e+22 	 4.642749e+09
1.20044538e+01 	 2.219808e-06 	 2.649850e+03 	 6.139218e+04 	 1.132430e+09 	 8.472670e+21 	 1.198250e+09 	 6.004374e+38 	 3.924835e+38 	 1.906348e+22 	 4.594256e+09
1.20045493e+01 	 2.247224e-06 	 2.645854e+03 	 6.064212e+04 	 1.129018e+09 	 8.357041e+21 	 1.181803e+09 	 6.004345e+38 	 3.924833e+38 	 1.881230e+22 	 4.546261e+09
1.20046446e+01 	 2.274978e-06 	 2.641865e+03 	 5.990122e+04 	 1.125616e+09 	 8.243025e+21 	 1.165583e+09 	 6.004317e+38 	 3.924831e+38 	 1.856454e+22 	 4.498759e+09
1.20047398e+01 	 2.303075e-06 	 2.637882e+03 	 5.916937e+04 	 1.122225e+09 	 8.130600e+21 	 1.149586e+09 	 6.004288e+38 	 3.924828e+38 	 1.832012e+22 	 4.451745e+09
1.20048348e+01 	 2.331519e-06 	 2.633907e+03 	 5.844646e+04 	 1.118845e+09 	 8.019743e+21 	 1.133810e+09 	 6.004259e+38 	 3.924826e+38 	 1.807901e+22 	 4.405215e+09
1.20049296e+01 	 2.360315e-06 	 2.629938e+03 	 5.773239e+04 	 1.115476e+09 	 7.910433e+21 	 1.118250e+09 	 6.004231e+38 	 3.924824e+38 	 1.784117e+22 	 4.359163e+09
1.20050243e+01 	 2.389466e-06 	 2.625977e+03 	 5.702704e+04 	 1.112118e+09 	 7.802647e+21 	 1.102905e+09 	 6.004202e+38 	 3.924822e+38 	 1.760655e+22 	 4.313585e+09
1.20051188e+01 	 2.418978e-06 	 2.622022e+03 	 5.633030e+04 	 1.108771e+09 	 7.696364e+21 	 1.087771e+09 	 6.004174e+38 	 3.924820e+38 	 1.737509e+22 	 4.268475e+09
1.20052132e+01 	 2.448854e-06 	 2.618074e+03 	 5.564208e+04 	 1.105434e+09 	 7.591561e+21 	 1.072845e+09 	 6.004145e+38 	 3.924817e+38 	 1.714677e+22 	 4.223830e+09
1.20053074e+01 	 2.479099e-06 	 2.614132e+03 	 5.496227e+04 	 1.102108e+09 	 7.488219e+21 	 1.058125e+09 	 6.004117e+38 	 3.924815e+38 	 1.692153e+22 	 4.179644e+09
1.20054014e+01 	 2.509718e-06 	 2.610197e+03 	 5.429077e+04 	 1.098793e+09 	 7.386315e+21 	 1.043607e+09 	 6.004089e+38 	 3.924813e+38 	 1.669933e+22 	 4.135912e+09
1.20054953e+01 	 2.540715e-06 	 2.606269e+03 	 5.362746e+04 	 1.095488e+09 	 7.285831e+21 	 1.029289e+09 	 6.004060e+38 	 3.924811e+38 	 1.648014e+22 	 4.092631e+09
1.20055890e+01 	 2.572095e-06 	 2.602348e+03 	 5.297227e+04 	 1.092194e+09 	 7.186745e+21 	 1.015168e+09 	 6.004032e+38 	 3.924808e+38 	 1.626390e+22 	 4.049795e+09
1.20056825e+01 	 2.603862e-06 	 2.598434e+03 	 5.232507e+04 	 1.088911e+09 	 7.089040e+21 	 1.001242e+09 	 6.004004e+38 	 3.924806e+38 	 1.605058e+22 	 4.007400e+09
1.20057759e+01 	 2.636022e-06 	 2.594526e+03 	 5.168579e+04 	 1.085638e+09 	 6.992693e+21 	 9.875068e+08 	 6.003976e+38 	 3.924804e+38 	 1.584014e+22 	 3.965442e+09
1.20058691e+01 	 2.668579e-06 	 2.590625e+03 	 5.105431e+04 	 1.082376e+09 	 6.897687e+21 	 9.739608e+08 	 6.003948e+38 	 3.924802e+38 	 1.563254e+22 	 3.923915e+09
1.20059622e+01 	 2.701539e-06 	 2.586731e+03 	 5.043055e+04 	 1.079125e+09 	 6.804002e+21 	 9.606013e+08 	 6.003920e+38 	 3.924799e+38 	 1.542773e+22 	 3.882817e+09
1.20060551e+01 	 2.734905e-06 	 2.582843e+03 	 4.981441e+04 	 1.075883e+09 	 6.711619e+21 	 9.474255e+08 	 6.003892e+38 	 3.924797e+38 	 1.522569e+22 	 3.842142e+09
1.20061479e+01 	 2.768684e-06 	 2.578962e+03 	 4.920580e+04 	 1.072653e+09 	 6.620520e+21 	 9.344310e+08 	 6.003864e+38 	 3.924795e+38 	 1.502636e+22 	 3.801886e+09
1.20062405e+01 	 2.802880e-06 	 2.575088e+03 	 4.860462e+04 	 1.069432e+09 	 6.530687e+21 	 9.216153e+08 	 6.003836e+38 	 3.924793e+38 	 1.482972e+22 	 3.762045e+09
1.20063329e+01 	 2.837499e-06 	 2.571220e+03 	 4.801079e+04 	 1.066222e+09 	 6.442102e+21 	 9.089758e+08 	 6.003808e+38 	 3.924790e+38 	 1.463573e+22 	 3.722614e+09
1.20064252e+01 	 2.872545e-06 	 2.567359e+03 	 4.742422e+04 	 1.063022e+09 	 6.354746e+21 	 8.965103e+08 	 6.003780e+38 	 3.924788e+38 	 1.444434e+22 	 3.683590e+09
1.20065173e+01 	 2.908024e-06 	 2.563505e+03 	 4.684481e+04 	 1.059833e+09 	 6.268604e+21 	 8.842161e+08 	 6.003752e+38 	 3.924786e+38 	 1.425553e+22 	 3.644969e+09
1.20066093e+01 	 2.943941e-06 	 2.559657e+03 	 4.627248e+04 	 1.056654e+09 	 6.183657e+21 	 8.720911e+08 	 6.003724e+38 	 3.924784e+38 	 1.406926e+22 	 3.606745e+09
1.20067012e+01 	 2.980302e-06 	 2.555816e+03 	 4.570714e+04 	 1.053485e+09 	 6.099889e+21 	 8.601329e+08 	 6.003697e+38 	 3.924781e+38 	 1.388549e+22 	 3.568916e+09
1.20067928e+01 	 3.017113e-06 	 2.551981e+03 	 4.514871e+04 	 1.050326e+09 	 6.017282e+21 	 8.483390e+08 	 6.003669e+38 	 3.924779e+38 	 1.370419e+22 	 3.531478e+09
1.20068844e+01 	 3.054378e-06 	 2.548154e+03 	 4.459710e+04 	 1.047177e+09 	 5.935821e+21 	 8.367074e+08 	 6.003641e+38 	 3.924777e+38 	 1.352533e+22 	 3.494425e+09
1.20069758e+01 	 3.092103e-06 	 2.544332e+03 	 4.405223e+04 	 1.044039e+09 	 5.855489e+21 	 8.252358e+08 	 6.003614e+38 	 3.924775e+38 	 1.334886e+22 	 3.457755e+09
1.20070670e+01 	 3.130294e-06 	 2.540517e+03 	 4.351402e+04 	 1.040911e+09 	 5.776271e+21 	 8.139218e+08 	 6.003586e+38 	 3.924773e+38 	 1.317477e+22 	 3.421463e+09
1.20071581e+01 	 3.168958e-06 	 2.536709e+03 	 4.298238e+04 	 1.037792e+09 	 5.698150e+21 	 8.027635e+08 	 6.003559e+38 	 3.924770e+38 	 1.300301e+22 	 3.385546e+09
1.20072490e+01 	 3.208099e-06 	 2.532907e+03 	 4.245724e+04 	 1.034684e+09 	 5.621111e+21 	 7.917586e+08 	 6.003531e+38 	 3.924768e+38 	 1.283355e+22 	 3.350000e+09
1.20073398e+01 	 3.247723e-06 	 2.529112e+03 	 4.193852e+04 	 1.031586e+09 	 5.545139e+21 	 7.809049e+08 	 6.003504e+38 	 3.924766e+38 	 1.266637e+22 	 3.314821e+09
1.20074304e+01 	 3.287837e-06 	 2.525323e+03 	 4.142613e+04 	 1.028497e+09 	 5.470219e+21 	 7.702005e+08 	 6.003476e+38 	 3.924764e+38 	 1.250142e+22 	 3.280006e+09
1.20075209e+01 	 3.328446e-06 	 2.521541e+03 	 4.092000e+04 	 1.025419e+09 	 5.396336e+21 	 7.596433e+08 	 6.003449e+38 	 3.924761e+38 	 1.233869e+22 	 3.245550e+09
1.20076112e+01 	 3.369557e-06 	 2.517766e+03 	 4.042006e+04 	 1.022350e+09 	 5.323475e+21 	 7.492311e+08 	 6.003422e+38 	 3.924759e+38 	 1.217814e+22 	 3.211449e+09
1.20077014e+01 	 3.411176e-06 	 2.513997e+03 	 3.992622e+04 	 1.019292e+09 	 5.251621e+21 	 7.389621e+08 	 6.003394e+38 	 3.924757e+38 	 1.201973e+22 	 3.177702e+09
1.20077915e+01 	 3.453310e-06 	 2.510234e+03 	 3.943842e+04 	 1.016243e+09 	 5.180761e+21 	 7.288343e+08 	 6.003367e+38 	 3.924755e+38 	 1.186344e+22 	 3.144303e+09
1.20078814e+01 	 3.495963e-06 	 2.506478e+03 	 3.895658e+04 	 1.013204e+09 	 5.110881e+21 	 7.188456e+08 	 6.003340e+38 	 3.924753e+38 	 1.170925e+22 	 3.111250e+09
1.20079712e+01 	 3.539144e-06 	 2.502728e+03 	 3.848062e+04 	 1.010174e+09 	 5.041966e+21 	 7.089943e+08 	 6.003313e+38 	 3.924750e+38 	 1.155711e+22 	 3.078538e+09
1.20080608e+01 	 3.582858e-06 	 2.498985e+03 	 3.801048e+04 	 1.007155e+09 	 4.974004e+21 	 6.992783e+08 	 6.003285e+38 	 3.924748e+38 	 1.140701e+22 	 3.046164e+09
1.20081503e+01 	 3.627112e-06 	 2.495248e+03 	 3.754609e+04 	 1.004145e+09 	 4.906981e+21 	 6.896959e+08 	 6.003258e+38 	 3.924746e+38 	 1.125892e+22 	 3.014125e+09
1.20082396e+01 	 3.671913e-06 	 2.491517e+03 	 3.708737e+04 	 1.001145e+09 	 4.840883e+21 	 6.802452e+08 	 6.003231e+38 	 3.924744e+38 	 1.111281e+22 	 2.982418e+09
1.20083288e+01 	 3.717267e-06 	 2.487793e+03 	 3.663425e+04 	 9.981544e+08 	 4.775698e+21 	 6.709243e+08 	 6.003204e+38 	 3.924741e+38 	 1.096864e+22 	 2.951039e+09
1.20084178e+01 	 3.763182e-06 	 2.484076e+03 	 3.618667e+04 	 9.951735e+08 	 4.711412e+21 	 6.617315e+08 	 6.003177e+38 	 3.924739e+38 	 1.082640e+22 	 2.919984e+09
1.20085067e+01 	 3.809663e-06 	 2.480365e+03 	 3.574455e+04 	 9.922022e+08 	 4.648014e+21 	 6.526650e+08 	 6.003150e+38 	 3.924737e+38 	 1.068606e+22 	 2.889251e+09
1.20085955e+01 	 3.856719e-06 	 2.476660e+03 	 3.530784e+04 	 9.892405e+08 	 4.585490e+21 	 6.437231e+08 	 6.003124e+38 	 3.924735e+38 	 1.054760e+22 	 2.858836e+09
1.20086841e+01 	 3.904357e-06 	 2.472962e+03 	 3.487646e+04 	 9.862883e+08 	 4.523827e+21 	 6.349041e+08 	 6.003097e+38 	 3.924733e+38 	 1.041097e+22 	 2.828735e+09
1.20087726e+01 	 3.952583e-06 	 2.469270e+03 	 3.445036e+04 	 9.833455e+08 	 4.463015e+21 	 6.262062e+08 	 6.003070e+38 	 3.924730e+38 	 1.027617e+22 	 2.798947e+09
1.20088610e+01 	 4.001404e-06 	 2.465584e+03 	 3.402946e+04 	 9.804122e+08 	 4.403041e+21 	 6.176278e+08 	 6.003043e+38 	 3.924728e+38 	 1.014317e+22 	 2.769467e+09
1.20089492e+01 	 4.050829e-06 	 2.461905e+03 	 3.361370e+04 	 9.774883e+08 	 4.343894e+21 	 6.091673e+08 	 6.003016e+38 	 3.924726e+38 	 1.001193e+22 	 2.740292e+09
1.20090373e+01 	 4.100864e-06 	 2.458232e+03 	 3.320302e+04 	 9.745739e+08 	 4.285561e+21 	 6.008230e+08 	 6.002990e+38 	 3.924724e+38 	 9.882449e+21 	 2.711420e+09
1.20091252e+01 	 4.151518e-06 	 2.454565e+03 	 3.279736e+04 	 9.716688e+08 	 4.228031e+21 	 5.925933e+08 	 6.002963e+38 	 3.924722e+38 	 9.754687e+21 	 2.682847e+09
1.20092130e+01 	 4.202797e-06 	 2.450905e+03 	 3.239666e+04 	 9.687730e+08 	 4.171293e+21 	 5.844766e+08 	 6.002936e+38 	 3.924719e+38 	 9.628625e+21 	 2.654570e+09
1.20093007e+01 	 4.254710e-06 	 2.447251e+03 	 3.200085e+04 	 9.658865e+08 	 4.115336e+21 	 5.764714e+08 	 6.002910e+38 	 3.924717e+38 	 9.504240e+21 	 2.626586e+09
1.20093882e+01 	 4.307264e-06 	 2.443603e+03 	 3.160987e+04 	 9.630093e+08 	 4.060148e+21 	 5.685762e+08 	 6.002883e+38 	 3.924715e+38 	 9.381510e+21 	 2.598892e+09
1.20094756e+01 	 4.360467e-06 	 2.439962e+03 	 3.122368e+04 	 9.601414e+08 	 4.005720e+21 	 5.607894e+08 	 6.002857e+38 	 3.924713e+38 	 9.260411e+21 	 2.571485e+09
1.20095629e+01 	 4.414328e-06 	 2.436327e+03 	 3.084220e+04 	 9.572826e+08 	 3.952040e+21 	 5.531096e+08 	 6.002830e+38 	 3.924711e+38 	 9.140921e+21 	 2.544363e+09
1.20096500e+01 	 4.468854e-06 	 2.432698e+03 	 3.046538e+04 	 9.544331e+08 	 3.899098e+21 	 5.455352e+08 	 6.002804e+38 	 3.924708e+38 	 9.023017e+21 	 2.517522e+09
1.20097370e+01 	 4.524054e-06 	 2.429075e+03 	 3.009317e+04 	 9.515926e+08 	 3.846883e+21 	 5.380648e+08 	 6.002777e+38 	 3.924706e+38 	 8.906680e+21 	 2.490959e+09
1.20098239e+01 	 4.579935e-06 	 2.425459e+03 	 2.972550e+04 	 9.487614e+08 	 3.795386e+21 	 5.306970e+08 	 6.002751e+38 	 3.924704e+38 	 8.791887e+21 	 2.464672e+09
1.20099106e+01 	 4.636507e-06 	 2.421849e+03 	 2.936233e+04 	 9.459392e+08 	 3.744596e+21 	 5.234304e+08 	 6.002725e+38 	 3.924702e+38 	 8.678618e+21 	 2.438658e+09
1.20099972e+01 	 4.693778e-06 	 2.418245e+03 	 2.900359e+04 	 9.431261e+08 	 3.694504e+21 	 5.162635e+08 	 6.002698e+38 	 3.924699e+38 	 8.566851e+21 	 2.412914e+09
1.20100837e+01 	 4.751757e-06 	 2.414648e+03 	 2.864924e+04 	 9.403220e+08 	 3.645098e+21 	 5.091951e+08 	 6.002672e+38 	 3.924697e+38 	 8.456565e+21 	 2.387437e+09
1.20101700e+01 	 4.810452e-06 	 2.411056e+03 	 2.829921e+04 	 9.375269e+08 	 3.596371e+21 	 5.022237e+08 	 6.002646e+38 	 3.924695e+38 	 8.347741e+21 	 2.362224e+09
1.20102562e+01 	 4.869871e-06 	 2.407471e+03 	 2.795347e+04 	 9.347408e+08 	 3.548312e+21 	 4.953480e+08 	 6.002620e+38 	 3.924693e+38 	 8.240359e+21 	 2.337274e+09
1.20103423e+01 	 4.930025e-06 	 2.403892e+03 	 2.761194e+04 	 9.319637e+08 	 3.500912e+21 	 4.885667e+08 	 6.002594e+38 	 3.924691e+38 	 8.134401e+21 	 2.312582e+09
1.20104283e+01 	 4.990922e-06 	 2.400319e+03 	 2.727459e+04 	 9.291955e+08 	 3.454163e+21 	 4.818784e+08 	 6.002567e+38 	 3.924688e+38 	 8.029846e+21 	 2.288148e+09
1.20105141e+01 	 5.052572e-06 	 2.396753e+03 	 2.694136e+04 	 9.264362e+08 	 3.408054e+21 	 4.752820e+08 	 6.002541e+38 	 3.924686e+38 	 7.926675e+21 	 2.263967e+09
1.20105998e+01 	 5.114983e-06 	 2.393192e+03 	 2.661220e+04 	 9.236857e+08 	 3.362576e+21 	 4.687762e+08 	 6.002515e+38 	 3.924684e+38 	 7.824869e+21 	 2.240037e+09
1.20106854e+01 	 5.178165e-06 	 2.389638e+03 	 2.628707e+04 	 9.209441e+08 	 3.317722e+21 	 4.623596e+08 	 6.002489e+38 	 3.924682e+38 	 7.724410e+21 	 2.216356e+09
1.20107708e+01 	 5.242128e-06 	 2.386090e+03 	 2.596590e+04 	 9.182114e+08 	 3.273482e+21 	 4.560311e+08 	 6.002463e+38 	 3.924680e+38 	 7.625279e+21 	 2.192921e+09
1.20108562e+01 	 5.306881e-06 	 2.382548e+03 	 2.564866e+04 	 9.154874e+08 	 3.229848e+21 	 4.497895e+08 	 6.002437e+38 	 3.924677e+38 	 7.527459e+21 	 2.169730e+09
1.20109414e+01 	 5.372434e-06 	 2.379012e+03 	 2.533530e+04 	 9.127721e+08 	 3.186811e+21 	 4.436336e+08 	 6.002411e+38 	 3.924675e+38 	 7.430931e+21 	 2.146780e+09
1.20110264e+01 	 5.438796e-06 	 2.375482e+03 	 2.502576e+04 	 9.100655e+08 	 3.144362e+21 	 4.375621e+08 	 6.002386e+38 	 3.924673e+38 	 7.335679e+21 	 2.124069e+09
