r (km)        	 u (km/s)    	 cs (km/s)   	 rho (g/cm3) 	 T (K)       	 P (dyne/cm2) 	 phi         	 L (erg/s)   	 L* (erg/s)  	 E (erg)     	 tau        
1.19959655e+01 	 1.263073e-06 	 2.841344e+03 	 1.080677e+05 	 1.302017e+09 	 1.601808e+22 	 2.262795e+09 	 6.006978e+38 	 3.925065e+38 	 3.528776e+22 	 7.430466e+09
1.19960693e+01 	 1.278670e-06 	 2.837020e+03 	 1.067474e+05 	 1.298058e+09 	 1.579638e+22 	 2.231669e+09 	 6.006946e+38 	 3.925063e+38 	 3.481464e+22 	 7.353447e+09
1.19961729e+01 	 1.294460e-06 	 2.832704e+03 	 1.054432e+05 	 1.294111e+09 	 1.557783e+22 	 2.200973e+09 	 6.006915e+38 	 3.925060e+38 	 3.434804e+22 	 7.277213e+09
1.19962764e+01 	 1.310445e-06 	 2.828395e+03 	 1.041550e+05 	 1.290177e+09 	 1.536235e+22 	 2.170701e+09 	 6.006884e+38 	 3.925058e+38 	 3.388787e+22 	 7.201757e+09
1.19963796e+01 	 1.326628e-06 	 2.824094e+03 	 1.028824e+05 	 1.286256e+09 	 1.514993e+22 	 2.140847e+09 	 6.006854e+38 	 3.925056e+38 	 3.343403e+22 	 7.127071e+09
1.19964826e+01 	 1.343010e-06 	 2.819799e+03 	 1.016255e+05 	 1.282347e+09 	 1.494050e+22 	 2.111404e+09 	 6.006823e+38 	 3.925053e+38 	 3.298645e+22 	 7.053147e+09
1.19965855e+01 	 1.359595e-06 	 2.815513e+03 	 1.003838e+05 	 1.278451e+09 	 1.473403e+22 	 2.082369e+09 	 6.006792e+38 	 3.925051e+38 	 3.254503e+22 	 6.979977e+09
1.19966881e+01 	 1.376385e-06 	 2.811233e+03 	 9.915740e+04 	 1.274567e+09 	 1.453047e+22 	 2.053733e+09 	 6.006761e+38 	 3.925049e+38 	 3.210968e+22 	 6.907554e+09
1.19967906e+01 	 1.393382e-06 	 2.806961e+03 	 9.794594e+04 	 1.270696e+09 	 1.432978e+22 	 2.025494e+09 	 6.006730e+38 	 3.925046e+38 	 3.168032e+22 	 6.835871e+09
1.19968928e+01 	 1.410589e-06 	 2.802696e+03 	 9.674928e+04 	 1.266838e+09 	 1.413193e+22 	 1.997643e+09 	 6.006700e+38 	 3.925044e+38 	 3.125687e+22 	 6.764919e+09
1.19969949e+01 	 1.428009e-06 	 2.798438e+03 	 9.556724e+04 	 1.262992e+09 	 1.393686e+22 	 1.970177e+09 	 6.006669e+38 	 3.925042e+38 	 3.083923e+22 	 6.694692e+09
1.19970967e+01 	 1.445643e-06 	 2.794188e+03 	 9.439964e+04 	 1.259158e+09 	 1.374455e+22 	 1.943090e+09 	 6.006639e+38 	 3.925040e+38 	 3.042733e+22 	 6.625183e+09
1.19971984e+01 	 1.463496e-06 	 2.789945e+03 	 9.324631e+04 	 1.255337e+09 	 1.355494e+22 	 1.916377e+09 	 6.006608e+38 	 3.925037e+38 	 3.002108e+22 	 6.556383e+09
1.19972999e+01 	 1.481569e-06 	 2.785709e+03 	 9.210707e+04 	 1.251528e+09 	 1.336801e+22 	 1.890032e+09 	 6.006578e+38 	 3.925035e+38 	 2.962042e+22 	 6.488286e+09
1.19974012e+01 	 1.499865e-06 	 2.781481e+03 	 9.098175e+04 	 1.247732e+09 	 1.318371e+22 	 1.864051e+09 	 6.006547e+38 	 3.925033e+38 	 2.922526e+22 	 6.420885e+09
1.19975023e+01 	 1.518388e-06 	 2.777260e+03 	 8.987017e+04 	 1.243948e+09 	 1.300201e+22 	 1.838428e+09 	 6.006517e+38 	 3.925030e+38 	 2.883551e+22 	 6.354173e+09
1.19976032e+01 	 1.537139e-06 	 2.773046e+03 	 8.877218e+04 	 1.240175e+09 	 1.282287e+22 	 1.813159e+09 	 6.006487e+38 	 3.925028e+38 	 2.845111e+22 	 6.288143e+09
1.19977040e+01 	 1.556122e-06 	 2.768839e+03 	 8.768760e+04 	 1.236416e+09 	 1.264624e+22 	 1.788238e+09 	 6.006456e+38 	 3.925026e+38 	 2.807198e+22 	 6.222788e+09
1.19978045e+01 	 1.575339e-06 	 2.764639e+03 	 8.661627e+04 	 1.232668e+09 	 1.247211e+22 	 1.763661e+09 	 6.006426e+38 	 3.925024e+38 	 2.769805e+22 	 6.158101e+09
1.19979049e+01 	 1.594794e-06 	 2.760447e+03 	 8.555803e+04 	 1.228932e+09 	 1.230042e+22 	 1.739423e+09 	 6.006396e+38 	 3.925021e+38 	 2.732923e+22 	 6.094076e+09
1.19980051e+01 	 1.614489e-06 	 2.756262e+03 	 8.451272e+04 	 1.225209e+09 	 1.213115e+22 	 1.715519e+09 	 6.006366e+38 	 3.925019e+38 	 2.696547e+22 	 6.030706e+09
1.19981051e+01 	 1.634427e-06 	 2.752084e+03 	 8.348018e+04 	 1.221497e+09 	 1.196426e+22 	 1.691944e+09 	 6.006336e+38 	 3.925017e+38 	 2.660668e+22 	 5.967984e+09
1.19982049e+01 	 1.654611e-06 	 2.747913e+03 	 8.246026e+04 	 1.217797e+09 	 1.179971e+22 	 1.668695e+09 	 6.006306e+38 	 3.925015e+38 	 2.625280e+22 	 5.905904e+09
1.19983045e+01 	 1.675045e-06 	 2.743749e+03 	 8.145280e+04 	 1.214110e+09 	 1.163748e+22 	 1.645766e+09 	 6.006276e+38 	 3.925012e+38 	 2.590376e+22 	 5.844459e+09
1.19984039e+01 	 1.695731e-06 	 2.739592e+03 	 8.045764e+04 	 1.210434e+09 	 1.147752e+22 	 1.623154e+09 	 6.006246e+38 	 3.925010e+38 	 2.555949e+22 	 5.783643e+09
1.19985032e+01 	 1.716673e-06 	 2.735443e+03 	 7.947465e+04 	 1.206770e+09 	 1.131981e+22 	 1.600853e+09 	 6.006216e+38 	 3.925008e+38 	 2.521993e+22 	 5.723450e+09
1.19986023e+01 	 1.737874e-06 	 2.731301e+03 	 7.850366e+04 	 1.203118e+09 	 1.116432e+22 	 1.578859e+09 	 6.006187e+38 	 3.925005e+38 	 2.488500e+22 	 5.663873e+09
1.19987012e+01 	 1.759336e-06 	 2.727165e+03 	 7.754454e+04 	 1.199477e+09 	 1.101101e+22 	 1.557169e+09 	 6.006157e+38 	 3.925003e+38 	 2.455465e+22 	 5.604906e+09
1.19987999e+01 	 1.781063e-06 	 2.723037e+03 	 7.659713e+04 	 1.195849e+09 	 1.085985e+22 	 1.535778e+09 	 6.006127e+38 	 3.925001e+38 	 2.422881e+22 	 5.546543e+09
1.19988984e+01 	 1.803059e-06 	 2.718916e+03 	 7.566131e+04 	 1.192232e+09 	 1.071081e+22 	 1.514681e+09 	 6.006097e+38 	 3.924999e+38 	 2.390741e+22 	 5.488778e+09
1.19989968e+01 	 1.825327e-06 	 2.714802e+03 	 7.473691e+04 	 1.188626e+09 	 1.056386e+22 	 1.493876e+09 	 6.006068e+38 	 3.924996e+38 	 2.359039e+22 	 5.431605e+09
1.19990950e+01 	 1.847869e-06 	 2.710695e+03 	 7.382381e+04 	 1.185033e+09 	 1.041898e+22 	 1.473357e+09 	 6.006038e+38 	 3.924994e+38 	 2.327770e+22 	 5.375018e+09
1.19991930e+01 	 1.870690e-06 	 2.706595e+03 	 7.292186e+04 	 1.181451e+09 	 1.027612e+22 	 1.453121e+09 	 6.006009e+38 	 3.924992e+38 	 2.296927e+22 	 5.319011e+09
1.19992908e+01 	 1.893793e-06 	 2.702502e+03 	 7.203093e+04 	 1.177880e+09 	 1.013527e+22 	 1.433163e+09 	 6.005979e+38 	 3.924990e+38 	 2.266504e+22 	 5.263577e+09
1.19993884e+01 	 1.917182e-06 	 2.698416e+03 	 7.115089e+04 	 1.174321e+09 	 9.996388e+21 	 1.413481e+09 	 6.005950e+38 	 3.924987e+38 	 2.236496e+22 	 5.208713e+09
1.19994859e+01 	 1.940859e-06 	 2.694337e+03 	 7.028160e+04 	 1.170773e+09 	 9.859454e+21 	 1.394070e+09 	 6.005921e+38 	 3.924985e+38 	 2.206895e+22 	 5.154410e+09
1.19995832e+01 	 1.964829e-06 	 2.690265e+03 	 6.942293e+04 	 1.167237e+09 	 9.724436e+21 	 1.374926e+09 	 6.005892e+38 	 3.924983e+38 	 2.177698e+22 	 5.100665e+09
1.19996804e+01 	 1.989095e-06 	 2.686200e+03 	 6.857475e+04 	 1.163712e+09 	 9.591309e+21 	 1.356046e+09 	 6.005862e+38 	 3.924981e+38 	 2.148898e+22 	 5.047471e+09
1.19997773e+01 	 2.013660e-06 	 2.682142e+03 	 6.773694e+04 	 1.160199e+09 	 9.460045e+21 	 1.337426e+09 	 6.005833e+38 	 3.924978e+38 	 2.120489e+22 	 4.994823e+09
1.19998741e+01 	 2.038529e-06 	 2.678090e+03 	 6.690936e+04 	 1.156697e+09 	 9.330618e+21 	 1.319063e+09 	 6.005804e+38 	 3.924976e+38 	 2.092466e+22 	 4.942715e+09
1.19999707e+01 	 2.063706e-06 	 2.674046e+03 	 6.609189e+04 	 1.153206e+09 	 9.203003e+21 	 1.300952e+09 	 6.005775e+38 	 3.924974e+38 	 2.064825e+22 	 4.891142e+09
1.20000672e+01 	 2.089193e-06 	 2.670009e+03 	 6.528441e+04 	 1.149727e+09 	 9.077172e+21 	 1.283091e+09 	 6.005746e+38 	 3.924971e+38 	 2.037559e+22 	 4.840098e+09
1.20001634e+01 	 2.114995e-06 	 2.665979e+03 	 6.448679e+04 	 1.146258e+09 	 8.953101e+21 	 1.265477e+09 	 6.005717e+38 	 3.924969e+38 	 2.010663e+22 	 4.789578e+09
1.20002595e+01 	 2.141116e-06 	 2.661955e+03 	 6.369892e+04 	 1.142801e+09 	 8.830764e+21 	 1.248104e+09 	 6.005688e+38 	 3.924967e+38 	 1.984132e+22 	 4.739577e+09
1.20003555e+01 	 2.167559e-06 	 2.657939e+03 	 6.292068e+04 	 1.139355e+09 	 8.710136e+21 	 1.230971e+09 	 6.005659e+38 	 3.924965e+38 	 1.957961e+22 	 4.690089e+09
1.20004512e+01 	 2.194329e-06 	 2.653929e+03 	 6.215194e+04 	 1.135920e+09 	 8.591194e+21 	 1.214074e+09 	 6.005630e+38 	 3.924962e+38 	 1.932145e+22 	 4.641109e+09
1.20005468e+01 	 2.221430e-06 	 2.649926e+03 	 6.139260e+04 	 1.132496e+09 	 8.473913e+21 	 1.197409e+09 	 6.005601e+38 	 3.924960e+38 	 1.906679e+22 	 4.592633e+09
1.20006423e+01 	 2.248866e-06 	 2.645931e+03 	 6.064253e+04 	 1.129083e+09 	 8.358269e+21 	 1.180974e+09 	 6.005573e+38 	 3.924958e+38 	 1.881558e+22 	 4.544655e+09
1.20007375e+01 	 2.276640e-06 	 2.641942e+03 	 5.990162e+04 	 1.125681e+09 	 8.244239e+21 	 1.164766e+09 	 6.005544e+38 	 3.924956e+38 	 1.856778e+22 	 4.497170e+09
1.20008326e+01 	 2.304758e-06 	 2.637959e+03 	 5.916977e+04 	 1.122291e+09 	 8.131801e+21 	 1.148780e+09 	 6.005515e+38 	 3.924953e+38 	 1.832333e+22 	 4.450173e+09
1.20009276e+01 	 2.333223e-06 	 2.633984e+03 	 5.844686e+04 	 1.118911e+09 	 8.020932e+21 	 1.133015e+09 	 6.005487e+38 	 3.924951e+38 	 1.808219e+22 	 4.403659e+09
1.20010223e+01 	 2.362040e-06 	 2.630015e+03 	 5.773279e+04 	 1.115541e+09 	 7.911608e+21 	 1.117466e+09 	 6.005458e+38 	 3.924949e+38 	 1.784431e+22 	 4.357623e+09
1.20011169e+01 	 2.391212e-06 	 2.626054e+03 	 5.702743e+04 	 1.112183e+09 	 7.803809e+21 	 1.102132e+09 	 6.005429e+38 	 3.924947e+38 	 1.760965e+22 	 4.312061e+09
1.20012114e+01 	 2.420745e-06 	 2.622099e+03 	 5.633070e+04 	 1.108836e+09 	 7.697512e+21 	 1.087008e+09 	 6.005401e+38 	 3.924945e+38 	 1.737817e+22 	 4.266968e+09
1.20013057e+01 	 2.450643e-06 	 2.618151e+03 	 5.564247e+04 	 1.105499e+09 	 7.592698e+21 	 1.072093e+09 	 6.005373e+38 	 3.924942e+38 	 1.714981e+22 	 4.222338e+09
1.20013998e+01 	 2.480910e-06 	 2.614209e+03 	 5.496266e+04 	 1.102173e+09 	 7.489343e+21 	 1.057383e+09 	 6.005344e+38 	 3.924940e+38 	 1.692454e+22 	 4.178167e+09
1.20014937e+01 	 2.511551e-06 	 2.610274e+03 	 5.429115e+04 	 1.098858e+09 	 7.387428e+21 	 1.042876e+09 	 6.005316e+38 	 3.924938e+38 	 1.670231e+22 	 4.134451e+09
1.20015875e+01 	 2.542571e-06 	 2.606347e+03 	 5.362784e+04 	 1.095553e+09 	 7.286932e+21 	 1.028568e+09 	 6.005288e+38 	 3.924936e+38 	 1.648308e+22 	 4.091185e+09
1.20016812e+01 	 2.573973e-06 	 2.602425e+03 	 5.297264e+04 	 1.092259e+09 	 7.187834e+21 	 1.014457e+09 	 6.005259e+38 	 3.924933e+38 	 1.626682e+22 	 4.048364e+09
1.20017747e+01 	 2.605764e-06 	 2.598511e+03 	 5.232545e+04 	 1.088976e+09 	 7.090116e+21 	 1.000540e+09 	 6.005231e+38 	 3.924931e+38 	 1.605346e+22 	 4.005984e+09
1.20018680e+01 	 2.637947e-06 	 2.594603e+03 	 5.168616e+04 	 1.085703e+09 	 6.993758e+21 	 9.868150e+08 	 6.005203e+38 	 3.924929e+38 	 1.584299e+22 	 3.964041e+09
1.20019611e+01 	 2.670528e-06 	 2.590702e+03 	 5.105468e+04 	 1.082441e+09 	 6.898740e+21 	 9.732786e+08 	 6.005175e+38 	 3.924927e+38 	 1.563536e+22 	 3.922529e+09
1.20020541e+01 	 2.703512e-06 	 2.586808e+03 	 5.043092e+04 	 1.079189e+09 	 6.805042e+21 	 9.599284e+08 	 6.005147e+38 	 3.924924e+38 	 1.543052e+22 	 3.881445e+09
1.20021470e+01 	 2.736903e-06 	 2.582920e+03 	 4.981477e+04 	 1.075947e+09 	 6.712647e+21 	 9.467619e+08 	 6.005119e+38 	 3.924922e+38 	 1.522844e+22 	 3.840785e+09
1.20022397e+01 	 2.770706e-06 	 2.579039e+03 	 4.920616e+04 	 1.072717e+09 	 6.621536e+21 	 9.337766e+08 	 6.005091e+38 	 3.924920e+38 	 1.502909e+22 	 3.800543e+09
1.20023322e+01 	 2.804927e-06 	 2.575165e+03 	 4.860498e+04 	 1.069496e+09 	 6.531691e+21 	 9.209699e+08 	 6.005063e+38 	 3.924918e+38 	 1.483241e+22 	 3.760716e+09
1.20024246e+01 	 2.839571e-06 	 2.571297e+03 	 4.801115e+04 	 1.066286e+09 	 6.443095e+21 	 9.083394e+08 	 6.005035e+38 	 3.924915e+38 	 1.463839e+22 	 3.721299e+09
1.20025168e+01 	 2.874642e-06 	 2.567436e+03 	 4.742457e+04 	 1.063086e+09 	 6.355728e+21 	 8.958826e+08 	 6.005007e+38 	 3.924913e+38 	 1.444698e+22 	 3.682289e+09
1.20026089e+01 	 2.910147e-06 	 2.563582e+03 	 4.684516e+04 	 1.059897e+09 	 6.269575e+21 	 8.835971e+08 	 6.004979e+38 	 3.924911e+38 	 1.425814e+22 	 3.643681e+09
1.20027008e+01 	 2.946091e-06 	 2.559734e+03 	 4.627282e+04 	 1.056717e+09 	 6.184617e+21 	 8.714807e+08 	 6.004951e+38 	 3.924909e+38 	 1.407184e+22 	 3.605472e+09
1.20027926e+01 	 2.982479e-06 	 2.555893e+03 	 4.570748e+04 	 1.053548e+09 	 6.100838e+21 	 8.595308e+08 	 6.004924e+38 	 3.924906e+38 	 1.388804e+22 	 3.567656e+09
1.20028842e+01 	 3.019316e-06 	 2.552058e+03 	 4.514905e+04 	 1.050389e+09 	 6.018222e+21 	 8.477453e+08 	 6.004896e+38 	 3.924904e+38 	 1.370672e+22 	 3.530230e+09
1.20029757e+01 	 3.056608e-06 	 2.548231e+03 	 4.459744e+04 	 1.047241e+09 	 5.936750e+21 	 8.361219e+08 	 6.004868e+38 	 3.924902e+38 	 1.352783e+22 	 3.493191e+09
1.20030670e+01 	 3.094361e-06 	 2.544409e+03 	 4.405257e+04 	 1.044102e+09 	 5.856408e+21 	 8.246584e+08 	 6.004841e+38 	 3.924900e+38 	 1.335134e+22 	 3.456534e+09
1.20031582e+01 	 3.132580e-06 	 2.540594e+03 	 4.351435e+04 	 1.040974e+09 	 5.777180e+21 	 8.133524e+08 	 6.004813e+38 	 3.924898e+38 	 1.317721e+22 	 3.420255e+09
1.20032492e+01 	 3.171271e-06 	 2.536786e+03 	 4.298271e+04 	 1.037855e+09 	 5.699049e+21 	 8.022019e+08 	 6.004785e+38 	 3.924895e+38 	 1.300543e+22 	 3.384351e+09
1.20033400e+01 	 3.210441e-06 	 2.532984e+03 	 4.245757e+04 	 1.034747e+09 	 5.622001e+21 	 7.912048e+08 	 6.004758e+38 	 3.924893e+38 	 1.283595e+22 	 3.348817e+09
1.20034308e+01 	 3.250094e-06 	 2.529189e+03 	 4.193884e+04 	 1.031648e+09 	 5.546019e+21 	 7.803588e+08 	 6.004730e+38 	 3.924891e+38 	 1.266874e+22 	 3.313651e+09
1.20035213e+01 	 3.290237e-06 	 2.525401e+03 	 4.142645e+04 	 1.028560e+09 	 5.471089e+21 	 7.696619e+08 	 6.004703e+38 	 3.924889e+38 	 1.250377e+22 	 3.278847e+09
1.20036118e+01 	 3.330876e-06 	 2.521618e+03 	 4.092032e+04 	 1.025482e+09 	 5.397196e+21 	 7.591121e+08 	 6.004676e+38 	 3.924886e+38 	 1.234101e+22 	 3.244403e+09
1.20037020e+01 	 3.372017e-06 	 2.517843e+03 	 4.042037e+04 	 1.022413e+09 	 5.324326e+21 	 7.487073e+08 	 6.004648e+38 	 3.924884e+38 	 1.218043e+22 	 3.210315e+09
1.20037922e+01 	 3.413666e-06 	 2.514074e+03 	 3.992654e+04 	 1.019354e+09 	 5.252464e+21 	 7.384456e+08 	 6.004621e+38 	 3.924882e+38 	 1.202200e+22 	 3.176580e+09
1.20038822e+01 	 3.455830e-06 	 2.510311e+03 	 3.943873e+04 	 1.016305e+09 	 5.181595e+21 	 7.283249e+08 	 6.004594e+38 	 3.924880e+38 	 1.186569e+22 	 3.143192e+09
1.20039720e+01 	 3.498515e-06 	 2.506555e+03 	 3.895689e+04 	 1.013266e+09 	 5.111706e+21 	 7.183432e+08 	 6.004567e+38 	 3.924878e+38 	 1.171147e+22 	 3.110151e+09
1.20040617e+01 	 3.541727e-06 	 2.502805e+03 	 3.848093e+04 	 1.010237e+09 	 5.042782e+21 	 7.084988e+08 	 6.004539e+38 	 3.924875e+38 	 1.155931e+22 	 3.077450e+09
1.20041513e+01 	 3.585473e-06 	 2.499062e+03 	 3.801079e+04 	 1.007217e+09 	 4.974811e+21 	 6.987897e+08 	 6.004512e+38 	 3.924873e+38 	 1.140919e+22 	 3.045088e+09
1.20042407e+01 	 3.629759e-06 	 2.495325e+03 	 3.754639e+04 	 1.004207e+09 	 4.907779e+21 	 6.892140e+08 	 6.004485e+38 	 3.924871e+38 	 1.126107e+22 	 3.013061e+09
1.20043299e+01 	 3.674592e-06 	 2.491595e+03 	 3.708766e+04 	 1.001207e+09 	 4.841673e+21 	 6.797700e+08 	 6.004458e+38 	 3.924869e+38 	 1.111494e+22 	 2.981364e+09
1.20044191e+01 	 3.719980e-06 	 2.487871e+03 	 3.663454e+04 	 9.982164e+08 	 4.776479e+21 	 6.704557e+08 	 6.004431e+38 	 3.924866e+38 	 1.097075e+22 	 2.949996e+09
1.20045081e+01 	 3.765928e-06 	 2.484153e+03 	 3.618696e+04 	 9.952354e+08 	 4.712184e+21 	 6.612693e+08 	 6.004404e+38 	 3.924864e+38 	 1.082849e+22 	 2.918953e+09
1.20045969e+01 	 3.812443e-06 	 2.480442e+03 	 3.574484e+04 	 9.922640e+08 	 4.648776e+21 	 6.522092e+08 	 6.004377e+38 	 3.924862e+38 	 1.068812e+22 	 2.888230e+09
1.20046856e+01 	 3.859534e-06 	 2.476737e+03 	 3.530813e+04 	 9.893021e+08 	 4.586243e+21 	 6.432736e+08 	 6.004350e+38 	 3.924860e+38 	 1.054963e+22 	 2.857826e+09
1.20047742e+01 	 3.907206e-06 	 2.473039e+03 	 3.487675e+04 	 9.863497e+08 	 4.524573e+21 	 6.344608e+08 	 6.004323e+38 	 3.924858e+38 	 1.041299e+22 	 2.827737e+09
1.20048626e+01 	 3.955466e-06 	 2.469347e+03 	 3.445064e+04 	 9.834069e+08 	 4.463753e+21 	 6.257690e+08 	 6.004297e+38 	 3.924855e+38 	 1.027816e+22 	 2.797959e+09
1.20049509e+01 	 4.004324e-06 	 2.465661e+03 	 3.402974e+04 	 9.804735e+08 	 4.403771e+21 	 6.171967e+08 	 6.004270e+38 	 3.924853e+38 	 1.014514e+22 	 2.768489e+09
1.20050391e+01 	 4.053784e-06 	 2.461982e+03 	 3.361398e+04 	 9.775496e+08 	 4.344615e+21 	 6.087421e+08 	 6.004243e+38 	 3.924851e+38 	 1.001389e+22 	 2.739325e+09
1.20051271e+01 	 4.103856e-06 	 2.458309e+03 	 3.320330e+04 	 9.746350e+08 	 4.286274e+21 	 6.004036e+08 	 6.004216e+38 	 3.924849e+38 	 9.884379e+21 	 2.710462e+09
1.20052150e+01 	 4.154546e-06 	 2.454642e+03 	 3.279763e+04 	 9.717298e+08 	 4.228737e+21 	 5.921797e+08 	 6.004190e+38 	 3.924847e+38 	 9.756597e+21 	 2.681899e+09
1.20053027e+01 	 4.205863e-06 	 2.450982e+03 	 3.239693e+04 	 9.688340e+08 	 4.171991e+21 	 5.840688e+08 	 6.004163e+38 	 3.924844e+38 	 9.630516e+21 	 2.653632e+09
1.20053903e+01 	 4.257814e-06 	 2.447328e+03 	 3.200111e+04 	 9.659475e+08 	 4.116027e+21 	 5.760692e+08 	 6.004137e+38 	 3.924842e+38 	 9.506111e+21 	 2.625658e+09
1.20054778e+01 	 4.310406e-06 	 2.443680e+03 	 3.161014e+04 	 9.630702e+08 	 4.060832e+21 	 5.681796e+08 	 6.004110e+38 	 3.924840e+38 	 9.383360e+21 	 2.597974e+09
1.20055651e+01 	 4.363648e-06 	 2.440039e+03 	 3.122394e+04 	 9.602021e+08 	 4.006396e+21 	 5.603983e+08 	 6.004083e+38 	 3.924838e+38 	 9.262242e+21 	 2.570577e+09
1.20056523e+01 	 4.417548e-06 	 2.436404e+03 	 3.084246e+04 	 9.573433e+08 	 3.952709e+21 	 5.527238e+08 	 6.004057e+38 	 3.924835e+38 	 9.142733e+21 	 2.543464e+09
1.20057394e+01 	 4.472114e-06 	 2.432775e+03 	 3.046564e+04 	 9.544937e+08 	 3.899760e+21 	 5.451548e+08 	 6.004031e+38 	 3.924833e+38 	 9.024811e+21 	 2.516633e+09
1.20058263e+01 	 4.527353e-06 	 2.429153e+03 	 3.009343e+04 	 9.516532e+08 	 3.847538e+21 	 5.376896e+08 	 6.004004e+38 	 3.924831e+38 	 8.908455e+21 	 2.490079e+09
1.20059131e+01 	 4.583276e-06 	 2.425536e+03 	 2.972576e+04 	 9.488219e+08 	 3.796034e+21 	 5.303270e+08 	 6.003978e+38 	 3.924829e+38 	 8.793643e+21 	 2.463802e+09
1.20059998e+01 	 4.639889e-06 	 2.421926e+03 	 2.936258e+04 	 9.459996e+08 	 3.745237e+21 	 5.230655e+08 	 6.003951e+38 	 3.924827e+38 	 8.680355e+21 	 2.437797e+09
1.20060864e+01 	 4.697201e-06 	 2.418323e+03 	 2.900384e+04 	 9.431864e+08 	 3.695137e+21 	 5.159037e+08 	 6.003925e+38 	 3.924824e+38 	 8.568570e+21 	 2.412061e+09
1.20061728e+01 	 4.755222e-06 	 2.414725e+03 	 2.864949e+04 	 9.403823e+08 	 3.645726e+21 	 5.088402e+08 	 6.003899e+38 	 3.924822e+38 	 8.458267e+21 	 2.386593e+09
1.20062590e+01 	 4.813960e-06 	 2.411134e+03 	 2.829946e+04 	 9.375872e+08 	 3.596992e+21 	 5.018737e+08 	 6.003873e+38 	 3.924820e+38 	 8.349426e+21 	 2.361390e+09
1.20063452e+01 	 4.873423e-06 	 2.407548e+03 	 2.795371e+04 	 9.348010e+08 	 3.548926e+21 	 4.950028e+08 	 6.003846e+38 	 3.924818e+38 	 8.242027e+21 	 2.336448e+09
1.20064312e+01 	 4.933620e-06 	 2.403969e+03 	 2.761218e+04 	 9.320238e+08 	 3.501520e+21 	 4.882263e+08 	 6.003820e+38 	 3.924816e+38 	 8.136051e+21 	 2.311766e+09
1.20065171e+01 	 4.994562e-06 	 2.400397e+03 	 2.727483e+04 	 9.292555e+08 	 3.454763e+21 	 4.815428e+08 	 6.003794e+38 	 3.924813e+38 	 8.031478e+21 	 2.287339e+09
1.20066029e+01 	 5.056256e-06 	 2.396830e+03 	 2.694160e+04 	 9.264961e+08 	 3.408648e+21 	 4.749510e+08 	 6.003768e+38 	 3.924811e+38 	 7.928290e+21 	 2.263167e+09
1.20066885e+01 	 5.118712e-06 	 2.393270e+03 	 2.661244e+04 	 9.237456e+08 	 3.363165e+21 	 4.684497e+08 	 6.003742e+38 	 3.924809e+38 	 7.826467e+21 	 2.239246e+09
1.20067740e+01 	 5.181940e-06 	 2.389715e+03 	 2.628730e+04 	 9.210039e+08 	 3.318304e+21 	 4.620377e+08 	 6.003716e+38 	 3.924807e+38 	 7.725990e+21 	 2.215573e+09
1.20068594e+01 	 5.245950e-06 	 2.386167e+03 	 2.596613e+04 	 9.182710e+08 	 3.274057e+21 	 4.557136e+08 	 6.003690e+38 	 3.924805e+38 	 7.626842e+21 	 2.192147e+09
1.20069447e+01 	 5.310750e-06 	 2.382625e+03 	 2.564889e+04 	 9.155468e+08 	 3.230416e+21 	 4.494763e+08 	 6.003664e+38 	 3.924802e+38 	 7.529004e+21 	 2.168964e+09
1.20070298e+01 	 5.376350e-06 	 2.379089e+03 	 2.533552e+04 	 9.128315e+08 	 3.187373e+21 	 4.433247e+08 	 6.003638e+38 	 3.924800e+38 	 7.432459e+21 	 2.146022e+09
1.20071149e+01 	 5.442761e-06 	 2.375560e+03 	 2.502599e+04 	 9.101249e+08 	 3.144918e+21 	 4.372575e+08 	 6.003612e+38 	 3.924798e+38 	 7.337191e+21 	 2.123319e+09
