r (km)        	 u (km/s)    	 cs (km/s)   	 rho (g/cm3) 	 T (K)       	 P (dyne/cm2) 	 phi         	 L (erg/s)   	 L* (erg/s)  	 E (erg)     	 tau        
1.20027970e+01 	 1.635258e-06 	 2.845797e+03 	 1.049490e+05 	 1.306102e+09 	 1.588115e+22 	 1.750086e+09 	 6.145695e+38 	 4.016918e+38 	 3.520224e+22 	 7.205943e+09
1.20029011e+01 	 1.655165e-06 	 2.841549e+03 	 1.036847e+05 	 1.302205e+09 	 1.566548e+22 	 1.726367e+09 	 6.145662e+38 	 4.016915e+38 	 3.473953e+22 	 7.132243e+09
1.20030051e+01 	 1.675314e-06 	 2.837308e+03 	 1.024356e+05 	 1.298321e+09 	 1.545280e+22 	 1.702970e+09 	 6.145630e+38 	 4.016912e+38 	 3.428307e+22 	 7.059285e+09
1.20031088e+01 	 1.695709e-06 	 2.833074e+03 	 1.012016e+05 	 1.294449e+09 	 1.524308e+22 	 1.679891e+09 	 6.145597e+38 	 4.016909e+38 	 3.383280e+22 	 6.987061e+09
1.20032124e+01 	 1.716352e-06 	 2.828847e+03 	 9.998247e+04 	 1.290589e+09 	 1.503627e+22 	 1.657126e+09 	 6.145564e+38 	 4.016906e+38 	 3.338861e+22 	 6.915563e+09
1.20033158e+01 	 1.737246e-06 	 2.824628e+03 	 9.877802e+04 	 1.286742e+09 	 1.483232e+22 	 1.634671e+09 	 6.145532e+38 	 4.016903e+38 	 3.295042e+22 	 6.844786e+09
1.20034190e+01 	 1.758395e-06 	 2.820415e+03 	 9.758808e+04 	 1.282907e+09 	 1.463121e+22 	 1.612521e+09 	 6.145499e+38 	 4.016900e+38 	 3.251815e+22 	 6.774722e+09
1.20035220e+01 	 1.779802e-06 	 2.816210e+03 	 9.641247e+04 	 1.279085e+09 	 1.443288e+22 	 1.590672e+09 	 6.145467e+38 	 4.016897e+38 	 3.209173e+22 	 6.705363e+09
1.20036248e+01 	 1.801469e-06 	 2.812012e+03 	 9.525102e+04 	 1.275274e+09 	 1.423730e+22 	 1.569121e+09 	 6.145434e+38 	 4.016894e+38 	 3.167106e+22 	 6.636702e+09
1.20037274e+01 	 1.823400e-06 	 2.807821e+03 	 9.410357e+04 	 1.271476e+09 	 1.404443e+22 	 1.547863e+09 	 6.145402e+38 	 4.016891e+38 	 3.125606e+22 	 6.568733e+09
1.20038299e+01 	 1.845598e-06 	 2.803637e+03 	 9.296993e+04 	 1.267689e+09 	 1.385424e+22 	 1.526893e+09 	 6.145370e+38 	 4.016888e+38 	 3.084666e+22 	 6.501449e+09
1.20039322e+01 	 1.868066e-06 	 2.799461e+03 	 9.184996e+04 	 1.263915e+09 	 1.366667e+22 	 1.506209e+09 	 6.145337e+38 	 4.016885e+38 	 3.044279e+22 	 6.434843e+09
1.20040343e+01 	 1.890808e-06 	 2.795291e+03 	 9.074347e+04 	 1.260153e+09 	 1.348171e+22 	 1.485806e+09 	 6.145305e+38 	 4.016882e+38 	 3.004435e+22 	 6.368909e+09
1.20041362e+01 	 1.913827e-06 	 2.791128e+03 	 8.965032e+04 	 1.256402e+09 	 1.329930e+22 	 1.465680e+09 	 6.145273e+38 	 4.016879e+38 	 2.965129e+22 	 6.303639e+09
1.20042379e+01 	 1.937126e-06 	 2.786973e+03 	 8.857033e+04 	 1.252664e+09 	 1.311942e+22 	 1.445828e+09 	 6.145241e+38 	 4.016876e+38 	 2.926352e+22 	 6.239027e+09
1.20043394e+01 	 1.960709e-06 	 2.782825e+03 	 8.750336e+04 	 1.248938e+09 	 1.294203e+22 	 1.426246e+09 	 6.145209e+38 	 4.016873e+38 	 2.888097e+22 	 6.175066e+09
1.20044408e+01 	 1.984579e-06 	 2.778683e+03 	 8.644924e+04 	 1.245223e+09 	 1.276709e+22 	 1.406930e+09 	 6.145177e+38 	 4.016870e+38 	 2.850357e+22 	 6.111751e+09
1.20045419e+01 	 2.008740e-06 	 2.774549e+03 	 8.540781e+04 	 1.241520e+09 	 1.259457e+22 	 1.387876e+09 	 6.145145e+38 	 4.016868e+38 	 2.813124e+22 	 6.049074e+09
1.20046429e+01 	 2.033195e-06 	 2.770421e+03 	 8.437894e+04 	 1.237829e+09 	 1.242443e+22 	 1.369082e+09 	 6.145113e+38 	 4.016865e+38 	 2.776392e+22 	 5.987030e+09
1.20047437e+01 	 2.057947e-06 	 2.766301e+03 	 8.336245e+04 	 1.234150e+09 	 1.225664e+22 	 1.350543e+09 	 6.145081e+38 	 4.016862e+38 	 2.740154e+22 	 5.925612e+09
1.20048444e+01 	 2.083001e-06 	 2.762188e+03 	 8.235822e+04 	 1.230482e+09 	 1.209118e+22 	 1.332255e+09 	 6.145049e+38 	 4.016859e+38 	 2.704403e+22 	 5.864813e+09
1.20049448e+01 	 2.108361e-06 	 2.758081e+03 	 8.136608e+04 	 1.226827e+09 	 1.192800e+22 	 1.314217e+09 	 6.145018e+38 	 4.016856e+38 	 2.669132e+22 	 5.804628e+09
1.20050451e+01 	 2.134029e-06 	 2.753982e+03 	 8.038589e+04 	 1.223182e+09 	 1.176707e+22 	 1.296423e+09 	 6.144986e+38 	 4.016853e+38 	 2.634335e+22 	 5.745051e+09
1.20051452e+01 	 2.160009e-06 	 2.749889e+03 	 7.941751e+04 	 1.219550e+09 	 1.160836e+22 	 1.278871e+09 	 6.144954e+38 	 4.016850e+38 	 2.600004e+22 	 5.686076e+09
1.20052452e+01 	 2.186306e-06 	 2.745804e+03 	 7.846079e+04 	 1.215928e+09 	 1.145184e+22 	 1.261558e+09 	 6.144923e+38 	 4.016847e+38 	 2.566134e+22 	 5.627695e+09
1.20053449e+01 	 2.212923e-06 	 2.741725e+03 	 7.751561e+04 	 1.212319e+09 	 1.129748e+22 	 1.244479e+09 	 6.144891e+38 	 4.016844e+38 	 2.532719e+22 	 5.569905e+09
1.20054445e+01 	 2.239864e-06 	 2.737653e+03 	 7.658180e+04 	 1.208721e+09 	 1.114526e+22 	 1.227633e+09 	 6.144860e+38 	 4.016841e+38 	 2.499751e+22 	 5.512698e+09
1.20055439e+01 	 2.267134e-06 	 2.733589e+03 	 7.565925e+04 	 1.205134e+09 	 1.099513e+22 	 1.211016e+09 	 6.144828e+38 	 4.016838e+38 	 2.467226e+22 	 5.456069e+09
1.20056431e+01 	 2.294735e-06 	 2.729531e+03 	 7.474781e+04 	 1.201559e+09 	 1.084707e+22 	 1.194624e+09 	 6.144797e+38 	 4.016835e+38 	 2.435136e+22 	 5.400013e+09
1.20057422e+01 	 2.322673e-06 	 2.725480e+03 	 7.384735e+04 	 1.197995e+09 	 1.070105e+22 	 1.178455e+09 	 6.144766e+38 	 4.016832e+38 	 2.403475e+22 	 5.344523e+09
1.20058411e+01 	 2.350950e-06 	 2.721436e+03 	 7.295774e+04 	 1.194443e+09 	 1.055704e+22 	 1.162505e+09 	 6.144734e+38 	 4.016829e+38 	 2.372239e+22 	 5.289593e+09
1.20059398e+01 	 2.379572e-06 	 2.717399e+03 	 7.207884e+04 	 1.190901e+09 	 1.041502e+22 	 1.146772e+09 	 6.144703e+38 	 4.016826e+38 	 2.341420e+22 	 5.235220e+09
1.20060384e+01 	 2.408543e-06 	 2.713368e+03 	 7.121053e+04 	 1.187371e+09 	 1.027495e+22 	 1.131253e+09 	 6.144672e+38 	 4.016823e+38 	 2.311014e+22 	 5.181396e+09
1.20061368e+01 	 2.437867e-06 	 2.709345e+03 	 7.035268e+04 	 1.183853e+09 	 1.013681e+22 	 1.115945e+09 	 6.144641e+38 	 4.016821e+38 	 2.281014e+22 	 5.128116e+09
1.20062350e+01 	 2.467547e-06 	 2.705328e+03 	 6.950517e+04 	 1.180345e+09 	 1.000057e+22 	 1.100844e+09 	 6.144610e+38 	 4.016818e+38 	 2.251415e+22 	 5.075375e+09
1.20063330e+01 	 2.497589e-06 	 2.701318e+03 	 6.866787e+04 	 1.176849e+09 	 9.866206e+21 	 1.085948e+09 	 6.144579e+38 	 4.016815e+38 	 2.222212e+22 	 5.023168e+09
1.20064309e+01 	 2.527997e-06 	 2.697315e+03 	 6.784065e+04 	 1.173363e+09 	 9.733689e+21 	 1.071255e+09 	 6.144548e+38 	 4.016812e+38 	 2.193399e+22 	 4.971489e+09
1.20065286e+01 	 2.558775e-06 	 2.693319e+03 	 6.702340e+04 	 1.169889e+09 	 9.602995e+21 	 1.056761e+09 	 6.144517e+38 	 4.016809e+38 	 2.164970e+22 	 4.920333e+09
1.20066261e+01 	 2.589928e-06 	 2.689329e+03 	 6.621599e+04 	 1.166426e+09 	 9.474097e+21 	 1.042464e+09 	 6.144486e+38 	 4.016806e+38 	 2.136920e+22 	 4.869695e+09
1.20067235e+01 	 2.621460e-06 	 2.685347e+03 	 6.541831e+04 	 1.162974e+09 	 9.346971e+21 	 1.028361e+09 	 6.144455e+38 	 4.016803e+38 	 2.109245e+22 	 4.819570e+09
1.20068207e+01 	 2.653376e-06 	 2.681371e+03 	 6.463024e+04 	 1.159532e+09 	 9.221591e+21 	 1.014449e+09 	 6.144424e+38 	 4.016800e+38 	 2.081939e+22 	 4.769952e+09
1.20069178e+01 	 2.685681e-06 	 2.677402e+03 	 6.385166e+04 	 1.156102e+09 	 9.097934e+21 	 1.000726e+09 	 6.144393e+38 	 4.016797e+38 	 2.054997e+22 	 4.720836e+09
1.20070147e+01 	 2.718379e-06 	 2.673439e+03 	 6.308246e+04 	 1.152683e+09 	 8.975975e+21 	 9.871894e+08 	 6.144363e+38 	 4.016794e+38 	 2.028414e+22 	 4.672218e+09
1.20071114e+01 	 2.751476e-06 	 2.669484e+03 	 6.232253e+04 	 1.149274e+09 	 8.855689e+21 	 9.738365e+08 	 6.144332e+38 	 4.016791e+38 	 2.002184e+22 	 4.624092e+09
1.20072080e+01 	 2.784975e-06 	 2.665535e+03 	 6.157175e+04 	 1.145876e+09 	 8.737054e+21 	 9.606648e+08 	 6.144301e+38 	 4.016788e+38 	 1.976304e+22 	 4.576454e+09
1.20073044e+01 	 2.818883e-06 	 2.661593e+03 	 6.083002e+04 	 1.142490e+09 	 8.620048e+21 	 9.476719e+08 	 6.144271e+38 	 4.016786e+38 	 1.950769e+22 	 4.529299e+09
1.20074006e+01 	 2.853203e-06 	 2.657657e+03 	 6.009722e+04 	 1.139113e+09 	 8.504646e+21 	 9.348552e+08 	 6.144240e+38 	 4.016783e+38 	 1.925573e+22 	 4.482622e+09
1.20074967e+01 	 2.887941e-06 	 2.653728e+03 	 5.937325e+04 	 1.135748e+09 	 8.390827e+21 	 9.222124e+08 	 6.144210e+38 	 4.016780e+38 	 1.900713e+22 	 4.436418e+09
1.20075926e+01 	 2.923102e-06 	 2.649806e+03 	 5.865801e+04 	 1.132393e+09 	 8.278567e+21 	 9.097412e+08 	 6.144179e+38 	 4.016777e+38 	 1.876182e+22 	 4.390682e+09
1.20076884e+01 	 2.958692e-06 	 2.645891e+03 	 5.795137e+04 	 1.129049e+09 	 8.167845e+21 	 8.974391e+08 	 6.144149e+38 	 4.016774e+38 	 1.851978e+22 	 4.345410e+09
1.20077840e+01 	 2.994715e-06 	 2.641982e+03 	 5.725325e+04 	 1.125716e+09 	 8.058641e+21 	 8.853040e+08 	 6.144118e+38 	 4.016771e+38 	 1.828095e+22 	 4.300597e+09
1.20078794e+01 	 3.031176e-06 	 2.638079e+03 	 5.656354e+04 	 1.122393e+09 	 7.950933e+21 	 8.733335e+08 	 6.144088e+38 	 4.016768e+38 	 1.804530e+22 	 4.256239e+09
1.20079747e+01 	 3.068082e-06 	 2.634184e+03 	 5.588214e+04 	 1.119080e+09 	 7.844701e+21 	 8.615253e+08 	 6.144058e+38 	 4.016765e+38 	 1.781278e+22 	 4.212331e+09
1.20080698e+01 	 3.105437e-06 	 2.630295e+03 	 5.520895e+04 	 1.115779e+09 	 7.739922e+21 	 8.498773e+08 	 6.144028e+38 	 4.016762e+38 	 1.758334e+22 	 4.168868e+09
1.20081648e+01 	 3.143247e-06 	 2.626413e+03 	 5.454387e+04 	 1.112487e+09 	 7.636578e+21 	 8.383874e+08 	 6.143997e+38 	 4.016759e+38 	 1.735694e+22 	 4.125846e+09
1.20082596e+01 	 3.181517e-06 	 2.622537e+03 	 5.388680e+04 	 1.109206e+09 	 7.534647e+21 	 8.270532e+08 	 6.143967e+38 	 4.016756e+38 	 1.713355e+22 	 4.083261e+09
1.20083543e+01 	 3.220254e-06 	 2.618668e+03 	 5.323764e+04 	 1.105936e+09 	 7.434111e+21 	 8.158728e+08 	 6.143937e+38 	 4.016754e+38 	 1.691311e+22 	 4.041108e+09
1.20084488e+01 	 3.259462e-06 	 2.614806e+03 	 5.259631e+04 	 1.102676e+09 	 7.334949e+21 	 8.048440e+08 	 6.143907e+38 	 4.016751e+38 	 1.669560e+22 	 3.999383e+09
1.20085432e+01 	 3.299148e-06 	 2.610950e+03 	 5.196270e+04 	 1.099426e+09 	 7.237143e+21 	 7.939647e+08 	 6.143877e+38 	 4.016748e+38 	 1.648097e+22 	 3.958082e+09
1.20086374e+01 	 3.339317e-06 	 2.607100e+03 	 5.133672e+04 	 1.096187e+09 	 7.140674e+21 	 7.832330e+08 	 6.143847e+38 	 4.016745e+38 	 1.626918e+22 	 3.917201e+09
1.20087314e+01 	 3.379975e-06 	 2.603258e+03 	 5.071829e+04 	 1.092958e+09 	 7.045522e+21 	 7.726468e+08 	 6.143817e+38 	 4.016742e+38 	 1.606020e+22 	 3.876735e+09
1.20088253e+01 	 3.421128e-06 	 2.599421e+03 	 5.010730e+04 	 1.089739e+09 	 6.951670e+21 	 7.622041e+08 	 6.143787e+38 	 4.016739e+38 	 1.585398e+22 	 3.836679e+09
1.20089191e+01 	 3.462782e-06 	 2.595592e+03 	 4.950368e+04 	 1.086530e+09 	 6.859100e+21 	 7.519030e+08 	 6.143758e+38 	 4.016736e+38 	 1.565049e+22 	 3.797031e+09
1.20090127e+01 	 3.504944e-06 	 2.591769e+03 	 4.890733e+04 	 1.083332e+09 	 6.767793e+21 	 7.417415e+08 	 6.143728e+38 	 4.016733e+38 	 1.544968e+22 	 3.757786e+09
1.20091061e+01 	 3.547619e-06 	 2.587952e+03 	 4.831816e+04 	 1.080144e+09 	 6.677733e+21 	 7.317178e+08 	 6.143698e+38 	 4.016730e+38 	 1.525153e+22 	 3.718940e+09
1.20091994e+01 	 3.590814e-06 	 2.584142e+03 	 4.773609e+04 	 1.076965e+09 	 6.588900e+21 	 7.218300e+08 	 6.143668e+38 	 4.016727e+38 	 1.505600e+22 	 3.680489e+09
1.20092926e+01 	 3.634535e-06 	 2.580338e+03 	 4.716103e+04 	 1.073797e+09 	 6.501280e+21 	 7.120762e+08 	 6.143639e+38 	 4.016725e+38 	 1.486306e+22 	 3.642429e+09
1.20093856e+01 	 3.678788e-06 	 2.576541e+03 	 4.659289e+04 	 1.070639e+09 	 6.414855e+21 	 7.024546e+08 	 6.143609e+38 	 4.016722e+38 	 1.467266e+22 	 3.604756e+09
1.20094784e+01 	 3.723580e-06 	 2.572750e+03 	 4.603161e+04 	 1.067491e+09 	 6.329607e+21 	 6.929635e+08 	 6.143579e+38 	 4.016719e+38 	 1.448477e+22 	 3.567466e+09
1.20095711e+01 	 3.768918e-06 	 2.568966e+03 	 4.547708e+04 	 1.064353e+09 	 6.245521e+21 	 6.836009e+08 	 6.143550e+38 	 4.016716e+38 	 1.429936e+22 	 3.530555e+09
1.20096637e+01 	 3.814808e-06 	 2.565188e+03 	 4.492923e+04 	 1.061225e+09 	 6.162580e+21 	 6.743653e+08 	 6.143520e+38 	 4.016713e+38 	 1.411639e+22 	 3.494020e+09
1.20097561e+01 	 3.861257e-06 	 2.561417e+03 	 4.438799e+04 	 1.058107e+09 	 6.080770e+21 	 6.652548e+08 	 6.143491e+38 	 4.016710e+38 	 1.393584e+22 	 3.457857e+09
1.20098484e+01 	 3.908271e-06 	 2.557652e+03 	 4.385326e+04 	 1.054999e+09 	 6.000073e+21 	 6.562678e+08 	 6.143462e+38 	 4.016707e+38 	 1.375766e+22 	 3.422062e+09
1.20099405e+01 	 3.955858e-06 	 2.553894e+03 	 4.332498e+04 	 1.051901e+09 	 5.920475e+21 	 6.474025e+08 	 6.143432e+38 	 4.016704e+38 	 1.358184e+22 	 3.386631e+09
1.20100325e+01 	 4.004024e-06 	 2.550141e+03 	 4.280306e+04 	 1.048812e+09 	 5.841959e+21 	 6.386574e+08 	 6.143403e+38 	 4.016701e+38 	 1.340833e+22 	 3.351562e+09
1.20101244e+01 	 4.052777e-06 	 2.546396e+03 	 4.228742e+04 	 1.045733e+09 	 5.764512e+21 	 6.300308e+08 	 6.143374e+38 	 4.016698e+38 	 1.323710e+22 	 3.316849e+09
1.20102161e+01 	 4.102124e-06 	 2.542656e+03 	 4.177800e+04 	 1.042664e+09 	 5.688117e+21 	 6.215210e+08 	 6.143344e+38 	 4.016696e+38 	 1.306812e+22 	 3.282490e+09
1.20103076e+01 	 4.152072e-06 	 2.538924e+03 	 4.127472e+04 	 1.039605e+09 	 5.612762e+21 	 6.131265e+08 	 6.143315e+38 	 4.016693e+38 	 1.290137e+22 	 3.248481e+09
1.20103990e+01 	 4.202628e-06 	 2.535197e+03 	 4.077749e+04 	 1.036555e+09 	 5.538431e+21 	 6.048458e+08 	 6.143286e+38 	 4.016690e+38 	 1.273681e+22 	 3.214818e+09
1.20104903e+01 	 4.253800e-06 	 2.531477e+03 	 4.028626e+04 	 1.033516e+09 	 5.465110e+21 	 5.966772e+08 	 6.143257e+38 	 4.016687e+38 	 1.257442e+22 	 3.181499e+09
1.20105815e+01 	 4.305594e-06 	 2.527763e+03 	 3.980095e+04 	 1.030485e+09 	 5.392785e+21 	 5.886193e+08 	 6.143228e+38 	 4.016684e+38 	 1.241416e+22 	 3.148519e+09
1.20106725e+01 	 4.358020e-06 	 2.524056e+03 	 3.932148e+04 	 1.027465e+09 	 5.321443e+21 	 5.806706e+08 	 6.143199e+38 	 4.016681e+38 	 1.225600e+22 	 3.115875e+09
1.20107633e+01 	 4.411084e-06 	 2.520355e+03 	 3.884779e+04 	 1.024454e+09 	 5.251069e+21 	 5.728295e+08 	 6.143170e+38 	 4.016678e+38 	 1.209992e+22 	 3.083564e+09
1.20108540e+01 	 4.464794e-06 	 2.516660e+03 	 3.837980e+04 	 1.021452e+09 	 5.181650e+21 	 5.650946e+08 	 6.143141e+38 	 4.016675e+38 	 1.194589e+22 	 3.051583e+09
1.20109446e+01 	 4.519159e-06 	 2.512971e+03 	 3.791746e+04 	 1.018460e+09 	 5.113173e+21 	 5.574645e+08 	 6.143112e+38 	 4.016672e+38 	 1.179388e+22 	 3.019928e+09
1.20110350e+01 	 4.574185e-06 	 2.509289e+03 	 3.746068e+04 	 1.015478e+09 	 5.045625e+21 	 5.499377e+08 	 6.143083e+38 	 4.016670e+38 	 1.164386e+22 	 2.988596e+09
1.20111254e+01 	 4.629882e-06 	 2.505613e+03 	 3.700940e+04 	 1.012505e+09 	 4.978993e+21 	 5.425128e+08 	 6.143054e+38 	 4.016667e+38 	 1.149581e+22 	 2.957583e+09
1.20112155e+01 	 4.686257e-06 	 2.501944e+03 	 3.656356e+04 	 1.009542e+09 	 4.913264e+21 	 5.351885e+08 	 6.143025e+38 	 4.016664e+38 	 1.134970e+22 	 2.926887e+09
1.20113056e+01 	 4.743319e-06 	 2.498281e+03 	 3.612309e+04 	 1.006587e+09 	 4.848427e+21 	 5.279634e+08 	 6.142996e+38 	 4.016661e+38 	 1.120551e+22 	 2.896504e+09
1.20113955e+01 	 4.801075e-06 	 2.494624e+03 	 3.568793e+04 	 1.003643e+09 	 4.784467e+21 	 5.208360e+08 	 6.142967e+38 	 4.016658e+38 	 1.106320e+22 	 2.866431e+09
1.20114852e+01 	 4.859535e-06 	 2.490973e+03 	 3.525801e+04 	 1.000707e+09 	 4.721374e+21 	 5.138052e+08 	 6.142939e+38 	 4.016655e+38 	 1.092276e+22 	 2.836666e+09
1.20115748e+01 	 4.918707e-06 	 2.487328e+03 	 3.483327e+04 	 9.977812e+08 	 4.659135e+21 	 5.068696e+08 	 6.142910e+38 	 4.016652e+38 	 1.078415e+22 	 2.807204e+09
1.20116643e+01 	 4.978599e-06 	 2.483690e+03 	 3.441365e+04 	 9.948643e+08 	 4.597739e+21 	 5.000279e+08 	 6.142881e+38 	 4.016649e+38 	 1.064736e+22 	 2.778043e+09
1.20117537e+01 	 5.039221e-06 	 2.480058e+03 	 3.399908e+04 	 9.919568e+08 	 4.537174e+21 	 4.932788e+08 	 6.142853e+38 	 4.016647e+38 	 1.051236e+22 	 2.749180e+09
1.20118429e+01 	 5.100581e-06 	 2.476432e+03 	 3.358950e+04 	 9.890584e+08 	 4.477428e+21 	 4.866211e+08 	 6.142824e+38 	 4.016644e+38 	 1.037912e+22 	 2.720612e+09
1.20119320e+01 	 5.162688e-06 	 2.472813e+03 	 3.318486e+04 	 9.861693e+08 	 4.418490e+21 	 4.800535e+08 	 6.142796e+38 	 4.016641e+38 	 1.024763e+22 	 2.692336e+09
1.20120210e+01 	 5.225552e-06 	 2.469199e+03 	 3.278510e+04 	 9.832893e+08 	 4.360348e+21 	 4.735748e+08 	 6.142767e+38 	 4.016638e+38 	 1.011785e+22 	 2.664349e+09
1.20121098e+01 	 5.289181e-06 	 2.465592e+03 	 3.239015e+04 	 9.804184e+08 	 4.302993e+21 	 4.671838e+08 	 6.142739e+38 	 4.016635e+38 	 9.989763e+21 	 2.636648e+09
1.20121986e+01 	 5.353586e-06 	 2.461991e+03 	 3.199995e+04 	 9.775567e+08 	 4.246413e+21 	 4.608793e+08 	 6.142710e+38 	 4.016632e+38 	 9.863351e+21 	 2.609230e+09
1.20122871e+01 	 5.418774e-06 	 2.458396e+03 	 3.161446e+04 	 9.747040e+08 	 4.190597e+21 	 4.546601e+08 	 6.142682e+38 	 4.016629e+38 	 9.738589e+21 	 2.582093e+09
1.20123756e+01 	 5.484757e-06 	 2.454807e+03 	 3.123361e+04 	 9.718604e+08 	 4.135535e+21 	 4.485251e+08 	 6.142654e+38 	 4.016626e+38 	 9.615455e+21 	 2.555233e+09
1.20124639e+01 	 5.551543e-06 	 2.451225e+03 	 3.085735e+04 	 9.690258e+08 	 4.081216e+21 	 4.424731e+08 	 6.142625e+38 	 4.016623e+38 	 9.493925e+21 	 2.528648e+09
1.20125521e+01 	 5.619142e-06 	 2.447648e+03 	 3.048563e+04 	 9.662002e+08 	 4.027630e+21 	 4.365031e+08 	 6.142597e+38 	 4.016621e+38 	 9.373980e+21 	 2.502335e+09
1.20126402e+01 	 5.687565e-06 	 2.444078e+03 	 3.011838e+04 	 9.633835e+08 	 3.974767e+21 	 4.306138e+08 	 6.142569e+38 	 4.016618e+38 	 9.255597e+21 	 2.476291e+09
1.20127281e+01 	 5.756821e-06 	 2.440514e+03 	 2.975555e+04 	 9.605758e+08 	 3.922618e+21 	 4.248042e+08 	 6.142541e+38 	 4.016615e+38 	 9.138757e+21 	 2.450514e+09
1.20128159e+01 	 5.826921e-06 	 2.436956e+03 	 2.939710e+04 	 9.577770e+08 	 3.871172e+21 	 4.190732e+08 	 6.142512e+38 	 4.016612e+38 	 9.023439e+21 	 2.425000e+09
1.20129036e+01 	 5.897874e-06 	 2.433404e+03 	 2.904296e+04 	 9.549871e+08 	 3.820419e+21 	 4.134197e+08 	 6.142484e+38 	 4.016609e+38 	 8.909623e+21 	 2.399748e+09
1.20129912e+01 	 5.969692e-06 	 2.429858e+03 	 2.869309e+04 	 9.522060e+08 	 3.770351e+21 	 4.078428e+08 	 6.142456e+38 	 4.016606e+38 	 8.797288e+21 	 2.374754e+09
1.20130786e+01 	 6.042384e-06 	 2.426318e+03 	 2.834744e+04 	 9.494338e+08 	 3.720956e+21 	 4.023413e+08 	 6.142428e+38 	 4.016603e+38 	 8.686414e+21 	 2.350016e+09
1.20131659e+01 	 6.115961e-06 	 2.422785e+03 	 2.800594e+04 	 9.466703e+08 	 3.672228e+21 	 3.969142e+08 	 6.142400e+38 	 4.016600e+38 	 8.576981e+21 	 2.325532e+09
1.20132531e+01 	 6.190434e-06 	 2.419257e+03 	 2.766857e+04 	 9.439157e+08 	 3.624155e+21 	 3.915606e+08 	 6.142372e+38 	 4.016598e+38 	 8.468972e+21 	 2.301298e+09
1.20133402e+01 	 6.265815e-06 	 2.415736e+03 	 2.733525e+04 	 9.411698e+08 	 3.576730e+21 	 3.862793e+08 	 6.142344e+38 	 4.016595e+38 	 8.362366e+21 	 2.277313e+09
1.20134271e+01 	 6.342113e-06 	 2.412220e+03 	 2.700596e+04 	 9.384325e+08 	 3.529942e+21 	 3.810695e+08 	 6.142316e+38 	 4.016592e+38 	 8.257144e+21 	 2.253573e+09
1.20135139e+01 	 6.419341e-06 	 2.408711e+03 	 2.668062e+04 	 9.357040e+08 	 3.483784e+21 	 3.759302e+08 	 6.142288e+38 	 4.016589e+38 	 8.153289e+21 	 2.230077e+09
1.20136006e+01 	 6.497509e-06 	 2.405208e+03 	 2.635921e+04 	 9.329841e+08 	 3.438247e+21 	 3.708604e+08 	 6.142260e+38 	 4.016586e+38 	 8.050782e+21 	 2.206822e+09
1.20136872e+01 	 6.576630e-06 	 2.401710e+03 	 2.604167e+04 	 9.302729e+08 	 3.393322e+21 	 3.658592e+08 	 6.142233e+38 	 4.016583e+38 	 7.949605e+21 	 2.183805e+09
1.20137736e+01 	 6.656713e-06 	 2.398219e+03 	 2.572796e+04 	 9.275702e+08 	 3.349001e+21 	 3.609256e+08 	 6.142205e+38 	 4.016580e+38 	 7.849740e+21 	 2.161024e+09
1.20138600e+01 	 6.737773e-06 	 2.394734e+03 	 2.541802e+04 	 9.248762e+08 	 3.305275e+21 	 3.560587e+08 	 6.142177e+38 	 4.016577e+38 	 7.751170e+21 	 2.138477e+09
1.20139462e+01 	 6.819819e-06 	 2.391255e+03 	 2.511182e+04 	 9.221906e+08 	 3.262136e+21 	 3.512576e+08 	 6.142149e+38 	 4.016574e+38 	 7.653878e+21 	 2.116161e+09
1.20140323e+01 	 6.902865e-06 	 2.387781e+03 	 2.480931e+04 	 9.195136e+08 	 3.219577e+21 	 3.465215e+08 	 6.142122e+38 	 4.016572e+38 	 7.557846e+21 	 2.094074e+09
