r (km)        	 u (km/s)    	 cs (km/s)   	 rho (g/cm3) 	 T (K)       	 P (dyne/cm2) 	 phi         	 L (erg/s)   	 L* (erg/s)  	 E (erg)     	 tau        
1.19997184e+01 	 3.163677e-06 	 2.871484e+03 	 9.652158e+04 	 1.329787e+09 	 1.587936e+22 	 9.120778e+08 	 6.675589e+38 	 4.362671e+38 	 3.597793e+22 	 6.551757e+09
1.19998266e+01 	 3.201190e-06 	 2.867389e+03 	 9.538855e+04 	 1.325996e+09 	 1.567316e+22 	 9.000637e+08 	 6.675548e+38 	 4.362665e+38 	 3.552707e+22 	 6.486295e+09
1.19999346e+01 	 3.239148e-06 	 2.863300e+03 	 9.426883e+04 	 1.322217e+09 	 1.546971e+22 	 8.882085e+08 	 6.675507e+38 	 4.362659e+38 	 3.508205e+22 	 6.421475e+09
1.20000424e+01 	 3.277556e-06 	 2.859219e+03 	 9.316224e+04 	 1.318450e+09 	 1.526898e+22 	 8.765101e+08 	 6.675467e+38 	 4.362653e+38 	 3.464280e+22 	 6.357292e+09
1.20001501e+01 	 3.316419e-06 	 2.855144e+03 	 9.206865e+04 	 1.314695e+09 	 1.507092e+22 	 8.649664e+08 	 6.675426e+38 	 4.362647e+38 	 3.420924e+22 	 6.293740e+09
1.20002576e+01 	 3.355744e-06 	 2.851076e+03 	 9.098790e+04 	 1.310952e+09 	 1.487550e+22 	 8.535753e+08 	 6.675385e+38 	 4.362642e+38 	 3.378130e+22 	 6.230813e+09
1.20003649e+01 	 3.395534e-06 	 2.847015e+03 	 8.991983e+04 	 1.307220e+09 	 1.468269e+22 	 8.423348e+08 	 6.675344e+38 	 4.362636e+38 	 3.335889e+22 	 6.168505e+09
1.20004721e+01 	 3.435797e-06 	 2.842961e+03 	 8.886430e+04 	 1.303500e+09 	 1.449244e+22 	 8.312429e+08 	 6.675304e+38 	 4.362630e+38 	 3.294195e+22 	 6.106809e+09
1.20005790e+01 	 3.476537e-06 	 2.838914e+03 	 8.782115e+04 	 1.299791e+09 	 1.430473e+22 	 8.202977e+08 	 6.675263e+38 	 4.362624e+38 	 3.253041e+22 	 6.045720e+09
1.20006858e+01 	 3.517761e-06 	 2.834873e+03 	 8.679026e+04 	 1.296094e+09 	 1.411952e+22 	 8.094972e+08 	 6.675222e+38 	 4.362618e+38 	 3.212418e+22 	 5.985232e+09
1.20007925e+01 	 3.559473e-06 	 2.830840e+03 	 8.577146e+04 	 1.292408e+09 	 1.393677e+22 	 7.988394e+08 	 6.675182e+38 	 4.362612e+38 	 3.172320e+22 	 5.925340e+09
1.20008990e+01 	 3.601680e-06 	 2.826813e+03 	 8.476463e+04 	 1.288734e+09 	 1.375645e+22 	 7.883225e+08 	 6.675141e+38 	 4.362606e+38 	 3.132740e+22 	 5.866036e+09
1.20010053e+01 	 3.644388e-06 	 2.822793e+03 	 8.376961e+04 	 1.285071e+09 	 1.357853e+22 	 7.779446e+08 	 6.675101e+38 	 4.362600e+38 	 3.093672e+22 	 5.807317e+09
1.20011114e+01 	 3.687602e-06 	 2.818780e+03 	 8.278628e+04 	 1.281420e+09 	 1.340298e+22 	 7.677038e+08 	 6.675061e+38 	 4.362594e+38 	 3.055107e+22 	 5.749175e+09
1.20012174e+01 	 3.731329e-06 	 2.814774e+03 	 8.181448e+04 	 1.277780e+09 	 1.322976e+22 	 7.575984e+08 	 6.675020e+38 	 4.362588e+38 	 3.017040e+22 	 5.691606e+09
1.20013232e+01 	 3.775574e-06 	 2.810774e+03 	 8.085410e+04 	 1.274151e+09 	 1.305885e+22 	 7.476266e+08 	 6.674980e+38 	 4.362582e+38 	 2.979464e+22 	 5.634603e+09
1.20014289e+01 	 3.820344e-06 	 2.806781e+03 	 7.990498e+04 	 1.270534e+09 	 1.289020e+22 	 7.377864e+08 	 6.674940e+38 	 4.362576e+38 	 2.942372e+22 	 5.578162e+09
1.20015344e+01 	 3.865646e-06 	 2.802795e+03 	 7.896701e+04 	 1.266928e+09 	 1.272379e+22 	 7.280763e+08 	 6.674900e+38 	 4.362570e+38 	 2.905758e+22 	 5.522277e+09
1.20016397e+01 	 3.911484e-06 	 2.798816e+03 	 7.804005e+04 	 1.263333e+09 	 1.255960e+22 	 7.184945e+08 	 6.674860e+38 	 4.362564e+38 	 2.869615e+22 	 5.466943e+09
1.20017449e+01 	 3.957866e-06 	 2.794843e+03 	 7.712397e+04 	 1.259749e+09 	 1.239758e+22 	 7.090393e+08 	 6.674820e+38 	 4.362559e+38 	 2.833938e+22 	 5.412153e+09
1.20018499e+01 	 4.004798e-06 	 2.790877e+03 	 7.621865e+04 	 1.256176e+09 	 1.223771e+22 	 6.997090e+08 	 6.674780e+38 	 4.362553e+38 	 2.798721e+22 	 5.357904e+09
1.20019547e+01 	 4.052287e-06 	 2.786918e+03 	 7.532395e+04 	 1.252615e+09 	 1.207996e+22 	 6.905019e+08 	 6.674740e+38 	 4.362547e+38 	 2.763956e+22 	 5.304189e+09
1.20020594e+01 	 4.100339e-06 	 2.782966e+03 	 7.443975e+04 	 1.249064e+09 	 1.192431e+22 	 6.814165e+08 	 6.674700e+38 	 4.362541e+38 	 2.729637e+22 	 5.251004e+09
1.20021639e+01 	 4.148961e-06 	 2.779020e+03 	 7.356593e+04 	 1.245525e+09 	 1.177071e+22 	 6.724511e+08 	 6.674660e+38 	 4.362535e+38 	 2.695761e+22 	 5.198343e+09
1.20022683e+01 	 4.198160e-06 	 2.775081e+03 	 7.270237e+04 	 1.241996e+09 	 1.161916e+22 	 6.636040e+08 	 6.674620e+38 	 4.362529e+38 	 2.662319e+22 	 5.146202e+09
1.20023725e+01 	 4.247942e-06 	 2.771148e+03 	 7.184895e+04 	 1.238479e+09 	 1.146961e+22 	 6.548738e+08 	 6.674580e+38 	 4.362523e+38 	 2.629307e+22 	 5.094575e+09
1.20024766e+01 	 4.298315e-06 	 2.767223e+03 	 7.100555e+04 	 1.234972e+09 	 1.132204e+22 	 6.462589e+08 	 6.674540e+38 	 4.362517e+38 	 2.596719e+22 	 5.043457e+09
1.20025805e+01 	 4.349285e-06 	 2.763303e+03 	 7.017204e+04 	 1.231477e+09 	 1.117642e+22 	 6.377578e+08 	 6.674501e+38 	 4.362511e+38 	 2.564548e+22 	 4.992843e+09
1.20026842e+01 	 4.400860e-06 	 2.759391e+03 	 6.934832e+04 	 1.227992e+09 	 1.103273e+22 	 6.293689e+08 	 6.674461e+38 	 4.362505e+38 	 2.532790e+22 	 4.942729e+09
1.20027878e+01 	 4.453046e-06 	 2.755485e+03 	 6.853427e+04 	 1.224518e+09 	 1.089095e+22 	 6.210908e+08 	 6.674421e+38 	 4.362499e+38 	 2.501440e+22 	 4.893109e+09
1.20028913e+01 	 4.505852e-06 	 2.751586e+03 	 6.772977e+04 	 1.221055e+09 	 1.075104e+22 	 6.129219e+08 	 6.674382e+38 	 4.362493e+38 	 2.470491e+22 	 4.843980e+09
1.20029946e+01 	 4.559283e-06 	 2.747693e+03 	 6.693472e+04 	 1.217603e+09 	 1.061297e+22 	 6.048610e+08 	 6.674342e+38 	 4.362487e+38 	 2.439939e+22 	 4.795335e+09
1.20030977e+01 	 4.613349e-06 	 2.743807e+03 	 6.614900e+04 	 1.214161e+09 	 1.047674e+22 	 5.969064e+08 	 6.674303e+38 	 4.362482e+38 	 2.409779e+22 	 4.747170e+09
1.20032007e+01 	 4.668056e-06 	 2.739928e+03 	 6.537251e+04 	 1.210730e+09 	 1.034231e+22 	 5.890569e+08 	 6.674264e+38 	 4.362476e+38 	 2.380004e+22 	 4.699481e+09
1.20033035e+01 	 4.723411e-06 	 2.736055e+03 	 6.460513e+04 	 1.207310e+09 	 1.020965e+22 	 5.813109e+08 	 6.674224e+38 	 4.362470e+38 	 2.350610e+22 	 4.652264e+09
1.20034062e+01 	 4.779423e-06 	 2.732189e+03 	 6.384676e+04 	 1.203900e+09 	 1.007874e+22 	 5.736672e+08 	 6.674185e+38 	 4.362464e+38 	 2.321593e+22 	 4.605512e+09
1.20035087e+01 	 4.836100e-06 	 2.728329e+03 	 6.309729e+04 	 1.200501e+09 	 9.949562e+21 	 5.661244e+08 	 6.674146e+38 	 4.362458e+38 	 2.292946e+22 	 4.559223e+09
1.20036111e+01 	 4.893449e-06 	 2.724476e+03 	 6.235661e+04 	 1.197113e+09 	 9.822089e+21 	 5.586811e+08 	 6.674106e+38 	 4.362452e+38 	 2.264666e+22 	 4.513391e+09
1.20037133e+01 	 4.951477e-06 	 2.720630e+03 	 6.162463e+04 	 1.193735e+09 	 9.696297e+21 	 5.513361e+08 	 6.674067e+38 	 4.362446e+38 	 2.236746e+22 	 4.468012e+09
1.20038154e+01 	 5.010195e-06 	 2.716790e+03 	 6.090125e+04 	 1.190368e+09 	 9.572165e+21 	 5.440880e+08 	 6.674028e+38 	 4.362440e+38 	 2.209183e+22 	 4.423081e+09
1.20039174e+01 	 5.069608e-06 	 2.712956e+03 	 6.018635e+04 	 1.187011e+09 	 9.449670e+21 	 5.369355e+08 	 6.673989e+38 	 4.362434e+38 	 2.181973e+22 	 4.378595e+09
1.20040192e+01 	 5.129727e-06 	 2.709129e+03 	 5.947985e+04 	 1.183664e+09 	 9.328789e+21 	 5.298774e+08 	 6.673950e+38 	 4.362428e+38 	 2.155109e+22 	 4.334549e+09
1.20041208e+01 	 5.190558e-06 	 2.705309e+03 	 5.878164e+04 	 1.180328e+09 	 9.209502e+21 	 5.229125e+08 	 6.673911e+38 	 4.362422e+38 	 2.128588e+22 	 4.290938e+09
1.20042223e+01 	 5.252111e-06 	 2.701495e+03 	 5.809163e+04 	 1.177002e+09 	 9.091786e+21 	 5.160394e+08 	 6.673872e+38 	 4.362416e+38 	 2.102405e+22 	 4.247758e+09
1.20043237e+01 	 5.314394e-06 	 2.697687e+03 	 5.740972e+04 	 1.173687e+09 	 8.975620e+21 	 5.092570e+08 	 6.673833e+38 	 4.362410e+38 	 2.076556e+22 	 4.205006e+09
1.20044249e+01 	 5.377416e-06 	 2.693886e+03 	 5.673581e+04 	 1.170382e+09 	 8.860984e+21 	 5.025641e+08 	 6.673794e+38 	 4.362404e+38 	 2.051036e+22 	 4.162677e+09
1.20045259e+01 	 5.441185e-06 	 2.690092e+03 	 5.606981e+04 	 1.167087e+09 	 8.747857e+21 	 4.959594e+08 	 6.673755e+38 	 4.362398e+38 	 2.025841e+22 	 4.120767e+09
1.20046269e+01 	 5.505711e-06 	 2.686304e+03 	 5.541163e+04 	 1.163803e+09 	 8.636218e+21 	 4.894419e+08 	 6.673716e+38 	 4.362393e+38 	 2.000966e+22 	 4.079272e+09
1.20047276e+01 	 5.571002e-06 	 2.682522e+03 	 5.476118e+04 	 1.160528e+09 	 8.526048e+21 	 4.830104e+08 	 6.673678e+38 	 4.362387e+38 	 1.976409e+22 	 4.038187e+09
1.20048283e+01 	 5.637067e-06 	 2.678747e+03 	 5.411836e+04 	 1.157264e+09 	 8.417326e+21 	 4.766636e+08 	 6.673639e+38 	 4.362381e+38 	 1.952163e+22 	 3.997509e+09
1.20049288e+01 	 5.703916e-06 	 2.674978e+03 	 5.348308e+04 	 1.154010e+09 	 8.310032e+21 	 4.704006e+08 	 6.673600e+38 	 4.362375e+38 	 1.928226e+22 	 3.957235e+09
1.20050292e+01 	 5.771558e-06 	 2.671216e+03 	 5.285527e+04 	 1.150766e+09 	 8.204149e+21 	 4.642201e+08 	 6.673561e+38 	 4.362369e+38 	 1.904592e+22 	 3.917359e+09
1.20051294e+01 	 5.840002e-06 	 2.667460e+03 	 5.223482e+04 	 1.147532e+09 	 8.099658e+21 	 4.581212e+08 	 6.673523e+38 	 4.362363e+38 	 1.881260e+22 	 3.877878e+09
1.20052294e+01 	 5.909258e-06 	 2.663710e+03 	 5.162166e+04 	 1.144309e+09 	 7.996538e+21 	 4.521027e+08 	 6.673484e+38 	 4.362357e+38 	 1.858223e+22 	 3.838788e+09
1.20053294e+01 	 5.979336e-06 	 2.659967e+03 	 5.101569e+04 	 1.141095e+09 	 7.894772e+21 	 4.461636e+08 	 6.673446e+38 	 4.362351e+38 	 1.835479e+22 	 3.800085e+09
1.20054292e+01 	 6.050244e-06 	 2.656231e+03 	 5.041684e+04 	 1.137891e+09 	 7.794341e+21 	 4.403027e+08 	 6.673407e+38 	 4.362345e+38 	 1.813023e+22 	 3.761767e+09
1.20055289e+01 	 6.121994e-06 	 2.652500e+03 	 4.982502e+04 	 1.134697e+09 	 7.695228e+21 	 4.345191e+08 	 6.673369e+38 	 4.362339e+38 	 1.790852e+22 	 3.723828e+09
1.20056284e+01 	 6.194595e-06 	 2.648776e+03 	 4.924015e+04 	 1.131513e+09 	 7.597415e+21 	 4.288118e+08 	 6.673330e+38 	 4.362333e+38 	 1.768963e+22 	 3.686265e+09
1.20057278e+01 	 6.268057e-06 	 2.645059e+03 	 4.866214e+04 	 1.128339e+09 	 7.500884e+21 	 4.231797e+08 	 6.673292e+38 	 4.362327e+38 	 1.747350e+22 	 3.649075e+09
1.20058270e+01 	 6.342390e-06 	 2.641347e+03 	 4.809091e+04 	 1.125175e+09 	 7.405619e+21 	 4.176219e+08 	 6.673254e+38 	 4.362321e+38 	 1.726012e+22 	 3.612253e+09
1.20059262e+01 	 6.417605e-06 	 2.637642e+03 	 4.752639e+04 	 1.122021e+09 	 7.311603e+21 	 4.121373e+08 	 6.673215e+38 	 4.362315e+38 	 1.704944e+22 	 3.575797e+09
1.20060252e+01 	 6.493712e-06 	 2.633944e+03 	 4.696850e+04 	 1.118876e+09 	 7.218818e+21 	 4.067250e+08 	 6.673177e+38 	 4.362309e+38 	 1.684142e+22 	 3.539702e+09
1.20061240e+01 	 6.570722e-06 	 2.630251e+03 	 4.641716e+04 	 1.115742e+09 	 7.127248e+21 	 4.013840e+08 	 6.673139e+38 	 4.362303e+38 	 1.663604e+22 	 3.503966e+09
1.20062227e+01 	 6.648646e-06 	 2.626565e+03 	 4.587228e+04 	 1.112617e+09 	 7.036877e+21 	 3.961135e+08 	 6.673101e+38 	 4.362297e+38 	 1.643325e+22 	 3.468584e+09
1.20063213e+01 	 6.727493e-06 	 2.622886e+03 	 4.533381e+04 	 1.109501e+09 	 6.947688e+21 	 3.909123e+08 	 6.673063e+38 	 4.362291e+38 	 1.623303e+22 	 3.433553e+09
1.20064198e+01 	 6.807276e-06 	 2.619212e+03 	 4.480165e+04 	 1.106396e+09 	 6.859666e+21 	 3.857798e+08 	 6.673025e+38 	 4.362285e+38 	 1.603534e+22 	 3.398871e+09
1.20065181e+01 	 6.888005e-06 	 2.615545e+03 	 4.427575e+04 	 1.103300e+09 	 6.772795e+21 	 3.807148e+08 	 6.672987e+38 	 4.362280e+38 	 1.584014e+22 	 3.364532e+09
1.20066163e+01 	 6.969692e-06 	 2.611885e+03 	 4.375601e+04 	 1.100214e+09 	 6.687060e+21 	 3.757166e+08 	 6.672949e+38 	 4.362274e+38 	 1.564741e+22 	 3.330535e+09
1.20067144e+01 	 7.052348e-06 	 2.608230e+03 	 4.324238e+04 	 1.097137e+09 	 6.602445e+21 	 3.707843e+08 	 6.672911e+38 	 4.362268e+38 	 1.545712e+22 	 3.296875e+09
1.20068123e+01 	 7.135984e-06 	 2.604582e+03 	 4.273477e+04 	 1.094070e+09 	 6.518936e+21 	 3.659170e+08 	 6.672873e+38 	 4.362262e+38 	 1.526922e+22 	 3.263550e+09
1.20069101e+01 	 7.220612e-06 	 2.600940e+03 	 4.223313e+04 	 1.091012e+09 	 6.436518e+21 	 3.611137e+08 	 6.672835e+38 	 4.362256e+38 	 1.508370e+22 	 3.230556e+09
1.20070078e+01 	 7.306244e-06 	 2.597304e+03 	 4.173737e+04 	 1.087964e+09 	 6.355175e+21 	 3.563738e+08 	 6.672797e+38 	 4.362250e+38 	 1.490051e+22 	 3.197890e+09
1.20071053e+01 	 7.392891e-06 	 2.593674e+03 	 4.124743e+04 	 1.084926e+09 	 6.274894e+21 	 3.516963e+08 	 6.672759e+38 	 4.362244e+38 	 1.471963e+22 	 3.165548e+09
1.20072028e+01 	 7.480567e-06 	 2.590051e+03 	 4.076325e+04 	 1.081897e+09 	 6.195661e+21 	 3.470804e+08 	 6.672721e+38 	 4.362238e+38 	 1.454103e+22 	 3.133528e+09
1.20073001e+01 	 7.569282e-06 	 2.586434e+03 	 4.028474e+04 	 1.078877e+09 	 6.117461e+21 	 3.425253e+08 	 6.672683e+38 	 4.362232e+38 	 1.436468e+22 	 3.101826e+09
1.20073972e+01 	 7.659050e-06 	 2.582823e+03 	 3.981186e+04 	 1.075867e+09 	 6.040282e+21 	 3.380302e+08 	 6.672646e+38 	 4.362226e+38 	 1.419055e+22 	 3.070440e+09
1.20074943e+01 	 7.749882e-06 	 2.579218e+03 	 3.934452e+04 	 1.072866e+09 	 5.964107e+21 	 3.335943e+08 	 6.672608e+38 	 4.362220e+38 	 1.401861e+22 	 3.039365e+09
1.20075912e+01 	 7.841792e-06 	 2.575620e+03 	 3.888267e+04 	 1.069874e+09 	 5.888925e+21 	 3.292168e+08 	 6.672570e+38 	 4.362214e+38 	 1.384883e+22 	 3.008600e+09
1.20076880e+01 	 7.934792e-06 	 2.572027e+03 	 3.842625e+04 	 1.066892e+09 	 5.814723e+21 	 3.248970e+08 	 6.672533e+38 	 4.362208e+38 	 1.368119e+22 	 2.978141e+09
1.20077847e+01 	 8.028895e-06 	 2.568441e+03 	 3.797518e+04 	 1.063919e+09 	 5.741487e+21 	 3.206341e+08 	 6.672495e+38 	 4.362202e+38 	 1.351565e+22 	 2.947985e+09
1.20078812e+01 	 8.124114e-06 	 2.564861e+03 	 3.752940e+04 	 1.060955e+09 	 5.669204e+21 	 3.164273e+08 	 6.672457e+38 	 4.362196e+38 	 1.335219e+22 	 2.918129e+09
1.20079776e+01 	 8.220463e-06 	 2.561287e+03 	 3.708886e+04 	 1.058000e+09 	 5.597863e+21 	 3.122758e+08 	 6.672420e+38 	 4.362190e+38 	 1.319079e+22 	 2.888571e+09
1.20080739e+01 	 8.317955e-06 	 2.557720e+03 	 3.665349e+04 	 1.055055e+09 	 5.527449e+21 	 3.081791e+08 	 6.672382e+38 	 4.362184e+38 	 1.303141e+22 	 2.859306e+09
1.20081701e+01 	 8.416603e-06 	 2.554158e+03 	 3.622323e+04 	 1.052118e+09 	 5.457950e+21 	 3.041363e+08 	 6.672345e+38 	 4.362178e+38 	 1.287403e+22 	 2.830333e+09
1.20082662e+01 	 8.516421e-06 	 2.550603e+03 	 3.579802e+04 	 1.049191e+09 	 5.389355e+21 	 3.001467e+08 	 6.672308e+38 	 4.362172e+38 	 1.271862e+22 	 2.801649e+09
1.20083621e+01 	 8.617424e-06 	 2.547053e+03 	 3.537780e+04 	 1.046273e+09 	 5.321651e+21 	 2.962096e+08 	 6.672270e+38 	 4.362166e+38 	 1.256517e+22 	 2.773250e+09
1.20084580e+01 	 8.719624e-06 	 2.543510e+03 	 3.496252e+04 	 1.043364e+09 	 5.254827e+21 	 2.923244e+08 	 6.672233e+38 	 4.362160e+38 	 1.241363e+22 	 2.745135e+09
1.20085537e+01 	 8.823036e-06 	 2.539973e+03 	 3.455211e+04 	 1.040464e+09 	 5.188872e+21 	 2.884903e+08 	 6.672195e+38 	 4.362154e+38 	 1.226400e+22 	 2.717299e+09
1.20086492e+01 	 8.927676e-06 	 2.536442e+03 	 3.414651e+04 	 1.037574e+09 	 5.123772e+21 	 2.847067e+08 	 6.672158e+38 	 4.362148e+38 	 1.211624e+22 	 2.689741e+09
1.20087447e+01 	 9.033556e-06 	 2.532917e+03 	 3.374568e+04 	 1.034692e+09 	 5.059518e+21 	 2.809729e+08 	 6.672121e+38 	 4.362142e+38 	 1.197033e+22 	 2.662457e+09
1.20088401e+01 	 9.140692e-06 	 2.529398e+03 	 3.334956e+04 	 1.031819e+09 	 4.996097e+21 	 2.772882e+08 	 6.672084e+38 	 4.362136e+38 	 1.182624e+22 	 2.635446e+09
1.20089353e+01 	 9.249100e-06 	 2.525885e+03 	 3.295808e+04 	 1.028955e+09 	 4.933499e+21 	 2.736520e+08 	 6.672046e+38 	 4.362130e+38 	 1.168396e+22 	 2.608704e+09
1.20090304e+01 	 9.358793e-06 	 2.522379e+03 	 3.257120e+04 	 1.026100e+09 	 4.871713e+21 	 2.700637e+08 	 6.672009e+38 	 4.362124e+38 	 1.154346e+22 	 2.582228e+09
1.20091254e+01 	 9.469787e-06 	 2.518878e+03 	 3.218886e+04 	 1.023254e+09 	 4.810727e+21 	 2.665226e+08 	 6.671972e+38 	 4.362118e+38 	 1.140471e+22 	 2.556017e+09
1.20092203e+01 	 9.582098e-06 	 2.515383e+03 	 3.181101e+04 	 1.020416e+09 	 4.750531e+21 	 2.630281e+08 	 6.671935e+38 	 4.362112e+38 	 1.126770e+22 	 2.530067e+09
1.20093151e+01 	 9.695741e-06 	 2.511895e+03 	 3.143759e+04 	 1.017588e+09 	 4.691115e+21 	 2.595795e+08 	 6.671898e+38 	 4.362106e+38 	 1.113239e+22 	 2.504376e+09
1.20094097e+01 	 9.810732e-06 	 2.508412e+03 	 3.106856e+04 	 1.014768e+09 	 4.632468e+21 	 2.561764e+08 	 6.671861e+38 	 4.362100e+38 	 1.099878e+22 	 2.478942e+09
1.20095043e+01 	 9.927087e-06 	 2.504936e+03 	 3.070386e+04 	 1.011958e+09 	 4.574581e+21 	 2.528180e+08 	 6.671824e+38 	 4.362094e+38 	 1.086683e+22 	 2.453761e+09
1.20095987e+01 	 1.004482e-05 	 2.501465e+03 	 3.034344e+04 	 1.009155e+09 	 4.517442e+21 	 2.495038e+08 	 6.671787e+38 	 4.362088e+38 	 1.073653e+22 	 2.428832e+09
1.20096930e+01 	 1.016395e-05 	 2.498001e+03 	 2.998725e+04 	 1.006362e+09 	 4.461043e+21 	 2.462332e+08 	 6.671750e+38 	 4.362082e+38 	 1.060785e+22 	 2.404151e+09
1.20097872e+01 	 1.028450e-05 	 2.494542e+03 	 2.963524e+04 	 1.003577e+09 	 4.405372e+21 	 2.430057e+08 	 6.671713e+38 	 4.362076e+38 	 1.048078e+22 	 2.379717e+09
1.20098813e+01 	 1.040647e-05 	 2.491090e+03 	 2.928737e+04 	 1.000801e+09 	 4.350422e+21 	 2.398206e+08 	 6.671676e+38 	 4.362070e+38 	 1.035529e+22 	 2.355527e+09
1.20099753e+01 	 1.052989e-05 	 2.487643e+03 	 2.894357e+04 	 9.980339e+08 	 4.296181e+21 	 2.366774e+08 	 6.671639e+38 	 4.362064e+38 	 1.023136e+22 	 2.331579e+09
1.20100692e+01 	 1.065478e-05 	 2.484203e+03 	 2.860382e+04 	 9.952751e+08 	 4.242641e+21 	 2.335755e+08 	 6.671602e+38 	 4.362058e+38 	 1.010897e+22 	 2.307870e+09
1.20101629e+01 	 1.078115e-05 	 2.480768e+03 	 2.826805e+04 	 9.925249e+08 	 4.189792e+21 	 2.305145e+08 	 6.671565e+38 	 4.362052e+38 	 9.988111e+21 	 2.284398e+09
1.20102566e+01 	 1.090901e-05 	 2.477339e+03 	 2.793622e+04 	 9.897833e+08 	 4.137625e+21 	 2.274937e+08 	 6.671529e+38 	 4.362046e+38 	 9.868751e+21 	 2.261161e+09
1.20103501e+01 	 1.103840e-05 	 2.473917e+03 	 2.760829e+04 	 9.870502e+08 	 4.086132e+21 	 2.245126e+08 	 6.671492e+38 	 4.362040e+38 	 9.750876e+21 	 2.238156e+09
1.20104436e+01 	 1.116931e-05 	 2.470500e+03 	 2.728421e+04 	 9.843256e+08 	 4.035302e+21 	 2.215707e+08 	 6.671455e+38 	 4.362033e+38 	 9.634466e+21 	 2.215381e+09
1.20105369e+01 	 1.130178e-05 	 2.467089e+03 	 2.696393e+04 	 9.816095e+08 	 3.985129e+21 	 2.186675e+08 	 6.671418e+38 	 4.362027e+38 	 9.519502e+21 	 2.192833e+09
1.20106301e+01 	 1.143583e-05 	 2.463684e+03 	 2.664741e+04 	 9.789019e+08 	 3.935602e+21 	 2.158025e+08 	 6.671382e+38 	 4.362021e+38 	 9.405966e+21 	 2.170511e+09
1.20107232e+01 	 1.157146e-05 	 2.460285e+03 	 2.633461e+04 	 9.762027e+08 	 3.886712e+21 	 2.129752e+08 	 6.671345e+38 	 4.362015e+38 	 9.293838e+21 	 2.148413e+09
1.20108163e+01 	 1.170870e-05 	 2.456892e+03 	 2.602548e+04 	 9.735119e+08 	 3.838453e+21 	 2.101850e+08 	 6.671308e+38 	 4.362009e+38 	 9.183102e+21 	 2.126536e+09
1.20109092e+01 	 1.184757e-05 	 2.453505e+03 	 2.571998e+04 	 9.708295e+08 	 3.790815e+21 	 2.074316e+08 	 6.671272e+38 	 4.362003e+38 	 9.073738e+21 	 2.104877e+09
1.20110020e+01 	 1.198808e-05 	 2.450124e+03 	 2.541806e+04 	 9.681554e+08 	 3.743790e+21 	 2.047143e+08 	 6.671235e+38 	 4.361997e+38 	 8.965732e+21 	 2.083435e+09
1.20110947e+01 	 1.213026e-05 	 2.446748e+03 	 2.511969e+04 	 9.654897e+08 	 3.697370e+21 	 2.020327e+08 	 6.671199e+38 	 4.361991e+38 	 8.859064e+21 	 2.062208e+09
1.20111873e+01 	 1.227413e-05 	 2.443379e+03 	 2.482482e+04 	 9.628323e+08 	 3.651548e+21 	 1.993865e+08 	 6.671162e+38 	 4.361985e+38 	 8.753719e+21 	 2.041194e+09
1.20112798e+01 	 1.241971e-05 	 2.440015e+03 	 2.453341e+04 	 9.601832e+08 	 3.606315e+21 	 1.967749e+08 	 6.671126e+38 	 4.361979e+38 	 8.649677e+21 	 2.020390e+09
1.20113721e+01 	 1.256701e-05 	 2.436657e+03 	 2.424542e+04 	 9.575424e+08 	 3.561663e+21 	 1.941978e+08 	 6.671089e+38 	 4.361973e+38 	 8.546924e+21 	 1.999794e+09
1.20114644e+01 	 1.271606e-05 	 2.433305e+03 	 2.396082e+04 	 9.549098e+08 	 3.517585e+21 	 1.916545e+08 	 6.671053e+38 	 4.361967e+38 	 8.445442e+21 	 1.979404e+09
1.20115566e+01 	 1.286688e-05 	 2.429959e+03 	 2.367955e+04 	 9.522854e+08 	 3.474073e+21 	 1.891446e+08 	 6.671016e+38 	 4.361961e+38 	 8.345216e+21 	 1.959219e+09
