r (km)        	 u (km/s)    	 cs (km/s)   	 rho (g/cm3) 	 T (K)       	 P (dyne/cm2) 	 phi         	 L (erg/s)   	 L* (erg/s)  	 E (erg)     	 tau        
1.20003007e+01 	 1.682217e-06 	 1.537565e+03 	 1.617659e+05 	 1.143819e+09 	 1.591964e+22 	 9.139933e+08 	 6.546156e+38 	 4.278193e+38 	 3.102131e+22 	 1.201777e+10
1.20003321e+01 	 1.701468e-06 	 1.535475e+03 	 1.599346e+05 	 1.140712e+09 	 1.570927e+22 	 9.024234e+08 	 6.546146e+38 	 4.278193e+38 	 3.062155e+22 	 1.190095e+10
1.20003634e+01 	 1.720940e-06 	 1.533388e+03 	 1.581241e+05 	 1.137613e+09 	 1.550174e+22 	 8.910002e+08 	 6.546136e+38 	 4.278192e+38 	 3.022712e+22 	 1.178526e+10
1.20003947e+01 	 1.740635e-06 	 1.531305e+03 	 1.563340e+05 	 1.134524e+09 	 1.529701e+22 	 8.797220e+08 	 6.546127e+38 	 4.278192e+38 	 2.983795e+22 	 1.167067e+10
1.20004260e+01 	 1.760555e-06 	 1.529224e+03 	 1.545642e+05 	 1.131443e+09 	 1.509505e+22 	 8.685868e+08 	 6.546117e+38 	 4.278191e+38 	 2.945397e+22 	 1.155718e+10
1.20004573e+01 	 1.780703e-06 	 1.527148e+03 	 1.528145e+05 	 1.128372e+09 	 1.489581e+22 	 8.575928e+08 	 6.546107e+38 	 4.278191e+38 	 2.907511e+22 	 1.144477e+10
1.20004884e+01 	 1.801081e-06 	 1.525074e+03 	 1.510846e+05 	 1.125310e+09 	 1.469926e+22 	 8.467383e+08 	 6.546098e+38 	 4.278191e+38 	 2.870130e+22 	 1.133344e+10
1.20005196e+01 	 1.821693e-06 	 1.523004e+03 	 1.493742e+05 	 1.122257e+09 	 1.450536e+22 	 8.360214e+08 	 6.546088e+38 	 4.278190e+38 	 2.833247e+22 	 1.122318e+10
1.20005507e+01 	 1.842541e-06 	 1.520937e+03 	 1.476832e+05 	 1.119213e+09 	 1.431408e+22 	 8.254405e+08 	 6.546078e+38 	 4.278190e+38 	 2.796855e+22 	 1.111396e+10
1.20005818e+01 	 1.863627e-06 	 1.518874e+03 	 1.460114e+05 	 1.116179e+09 	 1.412538e+22 	 8.149937e+08 	 6.546069e+38 	 4.278189e+38 	 2.760948e+22 	 1.100580e+10
1.20006128e+01 	 1.884955e-06 	 1.516814e+03 	 1.443585e+05 	 1.113153e+09 	 1.393922e+22 	 8.046794e+08 	 6.546059e+38 	 4.278189e+38 	 2.725518e+22 	 1.089867e+10
1.20006438e+01 	 1.906527e-06 	 1.514757e+03 	 1.427243e+05 	 1.110136e+09 	 1.375557e+22 	 7.944960e+08 	 6.546049e+38 	 4.278188e+38 	 2.690558e+22 	 1.079256e+10
1.20006747e+01 	 1.928345e-06 	 1.512703e+03 	 1.411086e+05 	 1.107128e+09 	 1.357440e+22 	 7.844416e+08 	 6.546040e+38 	 4.278188e+38 	 2.656064e+22 	 1.068748e+10
1.20007056e+01 	 1.950414e-06 	 1.510653e+03 	 1.395112e+05 	 1.104129e+09 	 1.339566e+22 	 7.745148e+08 	 6.546030e+38 	 4.278187e+38 	 2.622027e+22 	 1.058339e+10
1.20007365e+01 	 1.972735e-06 	 1.508606e+03 	 1.379318e+05 	 1.101139e+09 	 1.321933e+22 	 7.647139e+08 	 6.546020e+38 	 4.278187e+38 	 2.588443e+22 	 1.048031e+10
1.20007673e+01 	 1.995311e-06 	 1.506563e+03 	 1.363704e+05 	 1.098158e+09 	 1.304538e+22 	 7.550372e+08 	 6.546011e+38 	 4.278186e+38 	 2.555305e+22 	 1.037821e+10
1.20007981e+01 	 2.018146e-06 	 1.504522e+03 	 1.348266e+05 	 1.095185e+09 	 1.287377e+22 	 7.454833e+08 	 6.546001e+38 	 4.278186e+38 	 2.522606e+22 	 1.027709e+10
1.20008289e+01 	 2.041242e-06 	 1.502485e+03 	 1.333003e+05 	 1.092222e+09 	 1.270447e+22 	 7.360505e+08 	 6.545991e+38 	 4.278185e+38 	 2.490341e+22 	 1.017694e+10
1.20008596e+01 	 2.064602e-06 	 1.500452e+03 	 1.317913e+05 	 1.089267e+09 	 1.253744e+22 	 7.267373e+08 	 6.545982e+38 	 4.278185e+38 	 2.458503e+22 	 1.007775e+10
1.20008902e+01 	 2.088230e-06 	 1.498421e+03 	 1.302993e+05 	 1.086321e+09 	 1.237267e+22 	 7.175423e+08 	 6.545972e+38 	 4.278184e+38 	 2.427088e+22 	 9.979508e+09
1.20009209e+01 	 2.112128e-06 	 1.496394e+03 	 1.288243e+05 	 1.083384e+09 	 1.221010e+22 	 7.084638e+08 	 6.545962e+38 	 4.278184e+38 	 2.396088e+22 	 9.882210e+09
1.20009514e+01 	 2.136300e-06 	 1.494371e+03 	 1.273659e+05 	 1.080456e+09 	 1.204973e+22 	 6.995004e+08 	 6.545953e+38 	 4.278183e+38 	 2.365499e+22 	 9.785844e+09
1.20009820e+01 	 2.160748e-06 	 1.492350e+03 	 1.259241e+05 	 1.077536e+09 	 1.189151e+22 	 6.906507e+08 	 6.545943e+38 	 4.278183e+38 	 2.335314e+22 	 9.690403e+09
1.20010125e+01 	 2.185477e-06 	 1.490333e+03 	 1.244986e+05 	 1.074625e+09 	 1.173541e+22 	 6.819131e+08 	 6.545933e+38 	 4.278182e+38 	 2.305528e+22 	 9.595877e+09
1.20010430e+01 	 2.210488e-06 	 1.488319e+03 	 1.230892e+05 	 1.071722e+09 	 1.158141e+22 	 6.732864e+08 	 6.545924e+38 	 4.278182e+38 	 2.276137e+22 	 9.502258e+09
1.20010734e+01 	 2.235785e-06 	 1.486308e+03 	 1.216958e+05 	 1.068829e+09 	 1.142948e+22 	 6.647690e+08 	 6.545914e+38 	 4.278181e+38 	 2.247133e+22 	 9.409537e+09
1.20011038e+01 	 2.261372e-06 	 1.484301e+03 	 1.203181e+05 	 1.065943e+09 	 1.127960e+22 	 6.563596e+08 	 6.545904e+38 	 4.278181e+38 	 2.218513e+22 	 9.317706e+09
1.20011341e+01 	 2.287252e-06 	 1.482297e+03 	 1.189560e+05 	 1.063067e+09 	 1.113172e+22 	 6.480569e+08 	 6.545895e+38 	 4.278180e+38 	 2.190271e+22 	 9.226756e+09
1.20011645e+01 	 2.313428e-06 	 1.480296e+03 	 1.176094e+05 	 1.060199e+09 	 1.098582e+22 	 6.398593e+08 	 6.545885e+38 	 4.278179e+38 	 2.162401e+22 	 9.136679e+09
1.20011947e+01 	 2.339904e-06 	 1.478298e+03 	 1.162780e+05 	 1.057339e+09 	 1.084189e+22 	 6.317657e+08 	 6.545876e+38 	 4.278179e+38 	 2.134899e+22 	 9.047467e+09
1.20012250e+01 	 2.366682e-06 	 1.476303e+03 	 1.149617e+05 	 1.054488e+09 	 1.069988e+22 	 6.237748e+08 	 6.545866e+38 	 4.278178e+38 	 2.107759e+22 	 8.959112e+09
1.20012552e+01 	 2.393767e-06 	 1.474312e+03 	 1.136603e+05 	 1.051645e+09 	 1.055978e+22 	 6.158851e+08 	 6.545856e+38 	 4.278178e+38 	 2.080977e+22 	 8.871605e+09
1.20012853e+01 	 2.421162e-06 	 1.472324e+03 	 1.123736e+05 	 1.048811e+09 	 1.042156e+22 	 6.080954e+08 	 6.545847e+38 	 4.278177e+38 	 2.054548e+22 	 8.784938e+09
1.20013155e+01 	 2.448871e-06 	 1.470340e+03 	 1.111015e+05 	 1.045985e+09 	 1.028519e+22 	 6.004045e+08 	 6.545837e+38 	 4.278177e+38 	 2.028467e+22 	 8.699104e+09
1.20013456e+01 	 2.476897e-06 	 1.468358e+03 	 1.098437e+05 	 1.043168e+09 	 1.015064e+22 	 5.928110e+08 	 6.545828e+38 	 4.278176e+38 	 2.002729e+22 	 8.614095e+09
1.20013756e+01 	 2.505243e-06 	 1.466380e+03 	 1.086003e+05 	 1.040359e+09 	 1.001790e+22 	 5.853138e+08 	 6.545818e+38 	 4.278175e+38 	 1.977330e+22 	 8.529903e+09
1.20014056e+01 	 2.533914e-06 	 1.464405e+03 	 1.073709e+05 	 1.037559e+09 	 9.886939e+21 	 5.779117e+08 	 6.545809e+38 	 4.278175e+38 	 1.952265e+22 	 8.446519e+09
1.20014356e+01 	 2.562913e-06 	 1.462433e+03 	 1.061554e+05 	 1.034766e+09 	 9.757730e+21 	 5.706034e+08 	 6.545799e+38 	 4.278174e+38 	 1.927529e+22 	 8.363938e+09
1.20014655e+01 	 2.592244e-06 	 1.460464e+03 	 1.049536e+05 	 1.031982e+09 	 9.630250e+21 	 5.633877e+08 	 6.545789e+38 	 4.278174e+38 	 1.903118e+22 	 8.282150e+09
1.20014954e+01 	 2.621911e-06 	 1.458499e+03 	 1.037655e+05 	 1.029207e+09 	 9.504475e+21 	 5.562634e+08 	 6.545780e+38 	 4.278173e+38 	 1.879028e+22 	 8.201148e+09
1.20015253e+01 	 2.651917e-06 	 1.456537e+03 	 1.025908e+05 	 1.026439e+09 	 9.380383e+21 	 5.492295e+08 	 6.545770e+38 	 4.278172e+38 	 1.855254e+22 	 8.120926e+09
1.20015551e+01 	 2.682266e-06 	 1.454578e+03 	 1.014295e+05 	 1.023680e+09 	 9.257950e+21 	 5.422847e+08 	 6.545761e+38 	 4.278172e+38 	 1.831792e+22 	 8.041475e+09
1.20015849e+01 	 2.712963e-06 	 1.452622e+03 	 1.002812e+05 	 1.020929e+09 	 9.137155e+21 	 5.354279e+08 	 6.545751e+38 	 4.278171e+38 	 1.808637e+22 	 7.962789e+09
1.20016147e+01 	 2.744012e-06 	 1.450669e+03 	 9.914600e+04 	 1.018186e+09 	 9.017975e+21 	 5.286580e+08 	 6.545742e+38 	 4.278171e+38 	 1.785786e+22 	 7.884859e+09
1.20016444e+01 	 2.775415e-06 	 1.448720e+03 	 9.802362e+04 	 1.015451e+09 	 8.900389e+21 	 5.219739e+08 	 6.545732e+38 	 4.278170e+38 	 1.763235e+22 	 7.807679e+09
1.20016741e+01 	 2.807178e-06 	 1.446774e+03 	 9.691395e+04 	 1.012725e+09 	 8.784373e+21 	 5.153746e+08 	 6.545723e+38 	 4.278169e+38 	 1.740979e+22 	 7.731242e+09
1.20017038e+01 	 2.839305e-06 	 1.444831e+03 	 9.581684e+04 	 1.010007e+09 	 8.669907e+21 	 5.088589e+08 	 6.545713e+38 	 4.278169e+38 	 1.719015e+22 	 7.655541e+09
1.20017334e+01 	 2.871799e-06 	 1.442891e+03 	 9.473215e+04 	 1.007296e+09 	 8.556969e+21 	 5.024257e+08 	 6.545703e+38 	 4.278168e+38 	 1.697338e+22 	 7.580569e+09
1.20017630e+01 	 2.904665e-06 	 1.440954e+03 	 9.365973e+04 	 1.004594e+09 	 8.445540e+21 	 4.960741e+08 	 6.545694e+38 	 4.278167e+38 	 1.675945e+22 	 7.506318e+09
1.20017925e+01 	 2.937907e-06 	 1.439021e+03 	 9.259946e+04 	 1.001900e+09 	 8.335598e+21 	 4.898029e+08 	 6.545684e+38 	 4.278167e+38 	 1.654831e+22 	 7.432783e+09
1.20018220e+01 	 2.971530e-06 	 1.437090e+03 	 9.155119e+04 	 9.992137e+08 	 8.227122e+21 	 4.836112e+08 	 6.545675e+38 	 4.278166e+38 	 1.633993e+22 	 7.359956e+09
1.20018515e+01 	 3.005538e-06 	 1.435163e+03 	 9.051479e+04 	 9.965355e+08 	 8.120094e+21 	 4.774980e+08 	 6.545665e+38 	 4.278166e+38 	 1.613428e+22 	 7.287830e+09
1.20018809e+01 	 3.039935e-06 	 1.433239e+03 	 8.949012e+04 	 9.938653e+08 	 8.014493e+21 	 4.714622e+08 	 6.545656e+38 	 4.278165e+38 	 1.593131e+22 	 7.216399e+09
1.20019103e+01 	 3.074725e-06 	 1.431318e+03 	 8.847705e+04 	 9.912031e+08 	 7.910301e+21 	 4.655030e+08 	 6.545646e+38 	 4.278164e+38 	 1.573099e+22 	 7.145657e+09
1.20019397e+01 	 3.109914e-06 	 1.429400e+03 	 8.747545e+04 	 9.885488e+08 	 7.807497e+21 	 4.596192e+08 	 6.545637e+38 	 4.278164e+38 	 1.553328e+22 	 7.075596e+09
1.20019691e+01 	 3.145505e-06 	 1.427486e+03 	 8.648519e+04 	 9.859024e+08 	 7.706063e+21 	 4.538100e+08 	 6.545627e+38 	 4.278163e+38 	 1.533816e+22 	 7.006211e+09
1.20019984e+01 	 3.181504e-06 	 1.425574e+03 	 8.550613e+04 	 9.832639e+08 	 7.605981e+21 	 4.480743e+08 	 6.545618e+38 	 4.278162e+38 	 1.514557e+22 	 6.937495e+09
1.20020276e+01 	 3.217915e-06 	 1.423666e+03 	 8.453816e+04 	 9.806332e+08 	 7.507231e+21 	 4.424114e+08 	 6.545608e+38 	 4.278162e+38 	 1.495550e+22 	 6.869441e+09
1.20020569e+01 	 3.254742e-06 	 1.421761e+03 	 8.358115e+04 	 9.780104e+08 	 7.409797e+21 	 4.368202e+08 	 6.545599e+38 	 4.278161e+38 	 1.476790e+22 	 6.802044e+09
1.20020861e+01 	 3.291991e-06 	 1.419859e+03 	 8.263497e+04 	 9.753954e+08 	 7.313660e+21 	 4.312998e+08 	 6.545589e+38 	 4.278160e+38 	 1.458275e+22 	 6.735296e+09
1.20021152e+01 	 3.329666e-06 	 1.417960e+03 	 8.169951e+04 	 9.727882e+08 	 7.218802e+21 	 4.258494e+08 	 6.545580e+38 	 4.278159e+38 	 1.440000e+22 	 6.669193e+09
1.20021444e+01 	 3.367773e-06 	 1.416064e+03 	 8.077463e+04 	 9.701888e+08 	 7.125206e+21 	 4.204680e+08 	 6.545570e+38 	 4.278159e+38 	 1.421963e+22 	 6.603727e+09
1.20021735e+01 	 3.406315e-06 	 1.414172e+03 	 7.986022e+04 	 9.675971e+08 	 7.032855e+21 	 4.151548e+08 	 6.545561e+38 	 4.278158e+38 	 1.404161e+22 	 6.538894e+09
1.20022026e+01 	 3.445299e-06 	 1.412282e+03 	 7.895617e+04 	 9.650131e+08 	 6.941733e+21 	 4.099088e+08 	 6.545551e+38 	 4.278157e+38 	 1.386590e+22 	 6.474686e+09
1.20022316e+01 	 3.484729e-06 	 1.410396e+03 	 7.806235e+04 	 9.624368e+08 	 6.851821e+21 	 4.047294e+08 	 6.545542e+38 	 4.278157e+38 	 1.369247e+22 	 6.411097e+09
1.20022606e+01 	 3.524610e-06 	 1.408512e+03 	 7.717864e+04 	 9.598683e+08 	 6.763106e+21 	 3.996156e+08 	 6.545532e+38 	 4.278156e+38 	 1.352130e+22 	 6.348123e+09
1.20022896e+01 	 3.564948e-06 	 1.406632e+03 	 7.630495e+04 	 9.573074e+08 	 6.675569e+21 	 3.945665e+08 	 6.545523e+38 	 4.278155e+38 	 1.335235e+22 	 6.285757e+09
1.20023185e+01 	 3.605747e-06 	 1.404755e+03 	 7.544114e+04 	 9.547541e+08 	 6.589194e+21 	 3.895814e+08 	 6.545513e+38 	 4.278154e+38 	 1.318559e+22 	 6.223993e+09
1.20023474e+01 	 3.647013e-06 	 1.402881e+03 	 7.458711e+04 	 9.522084e+08 	 6.503967e+21 	 3.846594e+08 	 6.545504e+38 	 4.278154e+38 	 1.302099e+22 	 6.162826e+09
1.20023763e+01 	 3.688752e-06 	 1.401010e+03 	 7.374275e+04 	 9.496703e+08 	 6.419870e+21 	 3.797998e+08 	 6.545495e+38 	 4.278153e+38 	 1.285853e+22 	 6.102249e+09
1.20024052e+01 	 3.730968e-06 	 1.399142e+03 	 7.290795e+04 	 9.471398e+08 	 6.336891e+21 	 3.750017e+08 	 6.545485e+38 	 4.278152e+38 	 1.269817e+22 	 6.042258e+09
1.20024340e+01 	 3.773667e-06 	 1.397277e+03 	 7.208259e+04 	 9.446168e+08 	 6.255012e+21 	 3.702644e+08 	 6.545476e+38 	 4.278152e+38 	 1.253989e+22 	 5.982847e+09
1.20024628e+01 	 3.816855e-06 	 1.395416e+03 	 7.126659e+04 	 9.421014e+08 	 6.174221e+21 	 3.655871e+08 	 6.545466e+38 	 4.278151e+38 	 1.238366e+22 	 5.924010e+09
1.20024915e+01 	 3.860538e-06 	 1.393557e+03 	 7.045981e+04 	 9.395935e+08 	 6.094501e+21 	 3.609691e+08 	 6.545457e+38 	 4.278150e+38 	 1.222945e+22 	 5.865742e+09
1.20025202e+01 	 3.904720e-06 	 1.391702e+03 	 6.966218e+04 	 9.370931e+08 	 6.015837e+21 	 3.564095e+08 	 6.545447e+38 	 4.278149e+38 	 1.207724e+22 	 5.808037e+09
1.20025489e+01 	 3.949408e-06 	 1.389849e+03 	 6.887357e+04 	 9.346002e+08 	 5.938217e+21 	 3.519077e+08 	 6.545438e+38 	 4.278149e+38 	 1.192699e+22 	 5.750890e+09
1.20025776e+01 	 3.994608e-06 	 1.388000e+03 	 6.809389e+04 	 9.321147e+08 	 5.861625e+21 	 3.474629e+08 	 6.545428e+38 	 4.278148e+38 	 1.177869e+22 	 5.694295e+09
1.20026062e+01 	 4.040324e-06 	 1.386154e+03 	 6.732303e+04 	 9.296366e+08 	 5.786048e+21 	 3.430743e+08 	 6.545419e+38 	 4.278147e+38 	 1.163230e+22 	 5.638249e+09
1.20026348e+01 	 4.086564e-06 	 1.384311e+03 	 6.656090e+04 	 9.271659e+08 	 5.711472e+21 	 3.387414e+08 	 6.545409e+38 	 4.278146e+38 	 1.148781e+22 	 5.582744e+09
1.20026634e+01 	 4.133334e-06 	 1.382470e+03 	 6.580740e+04 	 9.247026e+08 	 5.637884e+21 	 3.344633e+08 	 6.545400e+38 	 4.278145e+38 	 1.134518e+22 	 5.527777e+09
1.20026919e+01 	 4.180638e-06 	 1.380633e+03 	 6.506243e+04 	 9.222466e+08 	 5.565269e+21 	 3.302394e+08 	 6.545391e+38 	 4.278145e+38 	 1.120439e+22 	 5.473341e+09
1.20027204e+01 	 4.228484e-06 	 1.378799e+03 	 6.432589e+04 	 9.197980e+08 	 5.493616e+21 	 3.260690e+08 	 6.545381e+38 	 4.278144e+38 	 1.106541e+22 	 5.419433e+09
1.20027489e+01 	 4.276878e-06 	 1.376968e+03 	 6.359770e+04 	 9.173568e+08 	 5.422911e+21 	 3.219514e+08 	 6.545372e+38 	 4.278143e+38 	 1.092823e+22 	 5.366046e+09
1.20027773e+01 	 4.325825e-06 	 1.375140e+03 	 6.287774e+04 	 9.149228e+08 	 5.353141e+21 	 3.178859e+08 	 6.545362e+38 	 4.278142e+38 	 1.079282e+22 	 5.313176e+09
1.20028057e+01 	 4.375333e-06 	 1.373315e+03 	 6.216593e+04 	 9.124960e+08 	 5.284294e+21 	 3.138719e+08 	 6.545353e+38 	 4.278142e+38 	 1.065915e+22 	 5.260819e+09
1.20028341e+01 	 4.425407e-06 	 1.371494e+03 	 6.146219e+04 	 9.100766e+08 	 5.216356e+21 	 3.099087e+08 	 6.545343e+38 	 4.278141e+38 	 1.052720e+22 	 5.208968e+09
1.20028625e+01 	 4.476054e-06 	 1.369675e+03 	 6.076641e+04 	 9.076643e+08 	 5.149317e+21 	 3.059957e+08 	 6.545334e+38 	 4.278140e+38 	 1.039695e+22 	 5.157620e+09
1.20028908e+01 	 4.527281e-06 	 1.367859e+03 	 6.007850e+04 	 9.052593e+08 	 5.083163e+21 	 3.021322e+08 	 6.545325e+38 	 4.278139e+38 	 1.026837e+22 	 5.106769e+09
1.20029191e+01 	 4.579095e-06 	 1.366046e+03 	 5.939838e+04 	 9.028615e+08 	 5.017884e+21 	 2.983177e+08 	 6.545315e+38 	 4.278138e+38 	 1.014145e+22 	 5.056411e+09
1.20029474e+01 	 4.631501e-06 	 1.364236e+03 	 5.872597e+04 	 9.004708e+08 	 4.953466e+21 	 2.945514e+08 	 6.545306e+38 	 4.278138e+38 	 1.001616e+22 	 5.006541e+09
1.20029756e+01 	 4.684507e-06 	 1.362430e+03 	 5.806116e+04 	 8.980873e+08 	 4.889899e+21 	 2.908329e+08 	 6.545296e+38 	 4.278137e+38 	 9.892485e+21 	 4.957155e+09
1.20030038e+01 	 4.738120e-06 	 1.360626e+03 	 5.740388e+04 	 8.957109e+08 	 4.827170e+21 	 2.871614e+08 	 6.545287e+38 	 4.278136e+38 	 9.770394e+21 	 4.908247e+09
1.20030320e+01 	 4.792346e-06 	 1.358825e+03 	 5.675404e+04 	 8.933416e+08 	 4.765270e+21 	 2.835363e+08 	 6.545278e+38 	 4.278135e+38 	 9.649870e+21 	 4.859814e+09
1.20030601e+01 	 4.847193e-06 	 1.357028e+03 	 5.611156e+04 	 8.909794e+08 	 4.704185e+21 	 2.799572e+08 	 6.545268e+38 	 4.278134e+38 	 9.530894e+21 	 4.811851e+09
1.20030883e+01 	 4.902668e-06 	 1.355233e+03 	 5.547635e+04 	 8.886243e+08 	 4.643907e+21 	 2.764234e+08 	 6.545259e+38 	 4.278133e+38 	 9.413444e+21 	 4.764352e+09
1.20031163e+01 	 4.958778e-06 	 1.353441e+03 	 5.484833e+04 	 8.862762e+08 	 4.584423e+21 	 2.729343e+08 	 6.545249e+38 	 4.278133e+38 	 9.297500e+21 	 4.717315e+09
1.20031444e+01 	 5.015530e-06 	 1.351652e+03 	 5.422742e+04 	 8.839351e+08 	 4.525723e+21 	 2.694893e+08 	 6.545240e+38 	 4.278132e+38 	 9.183041e+21 	 4.670733e+09
1.20031725e+01 	 5.072931e-06 	 1.349867e+03 	 5.361354e+04 	 8.816011e+08 	 4.467797e+21 	 2.660880e+08 	 6.545231e+38 	 4.278131e+38 	 9.070048e+21 	 4.624605e+09
1.20032005e+01 	 5.130990e-06 	 1.348084e+03 	 5.300661e+04 	 8.792740e+08 	 4.410633e+21 	 2.627297e+08 	 6.545221e+38 	 4.278130e+38 	 8.958503e+21 	 4.578923e+09
1.20032285e+01 	 5.189712e-06 	 1.346304e+03 	 5.240655e+04 	 8.769539e+08 	 4.354222e+21 	 2.594140e+08 	 6.545212e+38 	 4.278129e+38 	 8.848386e+21 	 4.533686e+09
1.20032564e+01 	 5.249107e-06 	 1.344527e+03 	 5.181329e+04 	 8.746407e+08 	 4.298554e+21 	 2.561402e+08 	 6.545202e+38 	 4.278128e+38 	 8.739678e+21 	 4.488887e+09
1.20032843e+01 	 5.309182e-06 	 1.342754e+03 	 5.122674e+04 	 8.723345e+08 	 4.243619e+21 	 2.529078e+08 	 6.545193e+38 	 4.278127e+38 	 8.632361e+21 	 4.444523e+09
1.20033122e+01 	 5.369944e-06 	 1.340983e+03 	 5.064683e+04 	 8.700353e+08 	 4.189407e+21 	 2.497163e+08 	 6.545184e+38 	 4.278127e+38 	 8.526416e+21 	 4.400591e+09
1.20033401e+01 	 5.431402e-06 	 1.339215e+03 	 5.007348e+04 	 8.677429e+08 	 4.135908e+21 	 2.465653e+08 	 6.545174e+38 	 4.278126e+38 	 8.421824e+21 	 4.357085e+09
1.20033680e+01 	 5.493563e-06 	 1.337450e+03 	 4.950663e+04 	 8.654573e+08 	 4.083112e+21 	 2.434541e+08 	 6.545165e+38 	 4.278125e+38 	 8.318569e+21 	 4.314002e+09
1.20033958e+01 	 5.556436e-06 	 1.335688e+03 	 4.894619e+04 	 8.631786e+08 	 4.031010e+21 	 2.403822e+08 	 6.545155e+38 	 4.278124e+38 	 8.216632e+21 	 4.271337e+09
1.20034236e+01 	 5.620028e-06 	 1.333930e+03 	 4.839209e+04 	 8.609068e+08 	 3.979594e+21 	 2.373493e+08 	 6.545146e+38 	 4.278123e+38 	 8.115997e+21 	 4.229087e+09
1.20034513e+01 	 5.684348e-06 	 1.332174e+03 	 4.784427e+04 	 8.586418e+08 	 3.928853e+21 	 2.343547e+08 	 6.545137e+38 	 4.278122e+38 	 8.016645e+21 	 4.187248e+09
1.20034791e+01 	 5.749405e-06 	 1.330421e+03 	 4.730265e+04 	 8.563835e+08 	 3.878778e+21 	 2.313980e+08 	 6.545127e+38 	 4.278121e+38 	 7.918560e+21 	 4.145816e+09
1.20035068e+01 	 5.815205e-06 	 1.328671e+03 	 4.676716e+04 	 8.541320e+08 	 3.829361e+21 	 2.284788e+08 	 6.545118e+38 	 4.278120e+38 	 7.821725e+21 	 4.104787e+09
1.20035345e+01 	 5.881759e-06 	 1.326924e+03 	 4.623774e+04 	 8.518873e+08 	 3.780592e+21 	 2.255965e+08 	 6.545109e+38 	 4.278119e+38 	 7.726124e+21 	 4.064156e+09
1.20035621e+01 	 5.949075e-06 	 1.325179e+03 	 4.571430e+04 	 8.496493e+08 	 3.732464e+21 	 2.227506e+08 	 6.545099e+38 	 4.278119e+38 	 7.631741e+21 	 4.023921e+09
1.20035898e+01 	 6.017161e-06 	 1.323438e+03 	 4.519680e+04 	 8.474180e+08 	 3.684967e+21 	 2.199408e+08 	 6.545090e+38 	 4.278118e+38 	 7.538560e+21 	 3.984077e+09
1.20036174e+01 	 6.086026e-06 	 1.321700e+03 	 4.468515e+04 	 8.451934e+08 	 3.638094e+21 	 2.171664e+08 	 6.545080e+38 	 4.278117e+38 	 7.446564e+21 	 3.944622e+09
1.20036450e+01 	 6.155680e-06 	 1.319965e+03 	 4.417929e+04 	 8.429755e+08 	 3.591834e+21 	 2.144272e+08 	 6.545071e+38 	 4.278116e+38 	 7.355738e+21 	 3.905550e+09
1.20036725e+01 	 6.226130e-06 	 1.318232e+03 	 4.367916e+04 	 8.407642e+08 	 3.546181e+21 	 2.117227e+08 	 6.545062e+38 	 4.278115e+38 	 7.266067e+21 	 3.866858e+09
1.20037001e+01 	 6.297387e-06 	 1.316503e+03 	 4.318469e+04 	 8.385596e+08 	 3.501127e+21 	 2.090524e+08 	 6.545052e+38 	 4.278114e+38 	 7.177536e+21 	 3.828543e+09
1.20037276e+01 	 6.369460e-06 	 1.314776e+03 	 4.269582e+04 	 8.363616e+08 	 3.456663e+21 	 2.064158e+08 	 6.545043e+38 	 4.278113e+38 	 7.090130e+21 	 3.790601e+09
1.20037551e+01 	 6.442358e-06 	 1.313053e+03 	 4.221249e+04 	 8.341702e+08 	 3.412781e+21 	 2.038126e+08 	 6.545034e+38 	 4.278112e+38 	 7.003833e+21 	 3.753029e+09
1.20037825e+01 	 6.516089e-06 	 1.311332e+03 	 4.173462e+04 	 8.319854e+08 	 3.369474e+21 	 2.012424e+08 	 6.545024e+38 	 4.278111e+38 	 6.918632e+21 	 3.715822e+09
