r (km)        	 u (km/s)    	 cs (km/s)   	 rho (g/cm3) 	 T (K)       	 P (dyne/cm2) 	 phi         	 L (erg/s)   	 L* (erg/s)  	 E (erg)     	 tau        
1.20010503e+01 	 2.496081e-06 	 1.554703e+03 	 1.539745e+05 	 1.169459e+09 	 1.599592e+22 	 6.228448e+08 	 6.987418e+38 	 4.566728e+38 	 3.169735e+22 	 1.128961e+10
1.20010835e+01 	 2.524358e-06 	 1.552652e+03 	 1.522488e+05 	 1.166376e+09 	 1.578957e+22 	 6.150558e+08 	 6.987406e+38 	 4.566727e+38 	 3.130037e+22 	 1.118072e+10
1.20011167e+01 	 2.552954e-06 	 1.550605e+03 	 1.505424e+05 	 1.163302e+09 	 1.558595e+22 	 6.073643e+08 	 6.987395e+38 	 4.566726e+38 	 3.090856e+22 	 1.107287e+10
1.20011498e+01 	 2.581875e-06 	 1.548561e+03 	 1.488552e+05 	 1.160237e+09 	 1.538503e+22 	 5.997694e+08 	 6.987383e+38 	 4.566725e+38 	 3.052187e+22 	 1.096603e+10
1.20011829e+01 	 2.611123e-06 	 1.546520e+03 	 1.471869e+05 	 1.157181e+09 	 1.518677e+22 	 5.922696e+08 	 6.987371e+38 	 4.566724e+38 	 3.014021e+22 	 1.086021e+10
1.20012160e+01 	 2.640703e-06 	 1.544483e+03 	 1.455373e+05 	 1.154135e+09 	 1.499113e+22 	 5.848639e+08 	 6.987359e+38 	 4.566723e+38 	 2.976352e+22 	 1.075539e+10
1.20012490e+01 	 2.670618e-06 	 1.542449e+03 	 1.439062e+05 	 1.151097e+09 	 1.479808e+22 	 5.775510e+08 	 6.987348e+38 	 4.566722e+38 	 2.939174e+22 	 1.065157e+10
1.20012820e+01 	 2.700872e-06 	 1.540418e+03 	 1.422933e+05 	 1.148068e+09 	 1.460758e+22 	 5.703298e+08 	 6.987336e+38 	 4.566721e+38 	 2.902479e+22 	 1.054873e+10
1.20013149e+01 	 2.731468e-06 	 1.538391e+03 	 1.406985e+05 	 1.145048e+09 	 1.441961e+22 	 5.631991e+08 	 6.987324e+38 	 4.566720e+38 	 2.866262e+22 	 1.044687e+10
1.20013479e+01 	 2.762411e-06 	 1.536367e+03 	 1.391216e+05 	 1.142037e+09 	 1.423411e+22 	 5.561578e+08 	 6.987313e+38 	 4.566719e+38 	 2.830515e+22 	 1.034598e+10
1.20013807e+01 	 2.793705e-06 	 1.534346e+03 	 1.375624e+05 	 1.139035e+09 	 1.405107e+22 	 5.492048e+08 	 6.987301e+38 	 4.566718e+38 	 2.795233e+22 	 1.024604e+10
1.20014136e+01 	 2.825353e-06 	 1.532329e+03 	 1.360207e+05 	 1.136042e+09 	 1.387045e+22 	 5.423389e+08 	 6.987289e+38 	 4.566717e+38 	 2.760409e+22 	 1.014705e+10
1.20014464e+01 	 2.857360e-06 	 1.530315e+03 	 1.344962e+05 	 1.133058e+09 	 1.369221e+22 	 5.355591e+08 	 6.987278e+38 	 4.566716e+38 	 2.726037e+22 	 1.004901e+10
1.20014791e+01 	 2.889729e-06 	 1.528304e+03 	 1.329888e+05 	 1.130082e+09 	 1.351632e+22 	 5.288643e+08 	 6.987266e+38 	 4.566715e+38 	 2.692111e+22 	 9.951890e+09
1.20015118e+01 	 2.922465e-06 	 1.526297e+03 	 1.314983e+05 	 1.127116e+09 	 1.334276e+22 	 5.222534e+08 	 6.987254e+38 	 4.566714e+38 	 2.658625e+22 	 9.855697e+09
1.20015445e+01 	 2.955572e-06 	 1.524293e+03 	 1.300246e+05 	 1.124158e+09 	 1.317149e+22 	 5.157254e+08 	 6.987242e+38 	 4.566713e+38 	 2.625573e+22 	 9.760417e+09
1.20015772e+01 	 2.989054e-06 	 1.522292e+03 	 1.285673e+05 	 1.121209e+09 	 1.300248e+22 	 5.092791e+08 	 6.987231e+38 	 4.566712e+38 	 2.592949e+22 	 9.666043e+09
1.20016098e+01 	 3.022915e-06 	 1.520295e+03 	 1.271264e+05 	 1.118268e+09 	 1.283569e+22 	 5.029137e+08 	 6.987219e+38 	 4.566711e+38 	 2.560748e+22 	 9.572566e+09
1.20016424e+01 	 3.057160e-06 	 1.518301e+03 	 1.257016e+05 	 1.115336e+09 	 1.267111e+22 	 4.966280e+08 	 6.987207e+38 	 4.566710e+38 	 2.528964e+22 	 9.479977e+09
1.20016749e+01 	 3.091793e-06 	 1.516310e+03 	 1.242928e+05 	 1.112413e+09 	 1.250869e+22 	 4.904212e+08 	 6.987196e+38 	 4.566709e+38 	 2.497590e+22 	 9.388269e+09
1.20017074e+01 	 3.126818e-06 	 1.514322e+03 	 1.228997e+05 	 1.109499e+09 	 1.234842e+22 	 4.842921e+08 	 6.987184e+38 	 4.566708e+38 	 2.466623e+22 	 9.297432e+09
1.20017399e+01 	 3.162240e-06 	 1.512338e+03 	 1.215223e+05 	 1.106593e+09 	 1.219025e+22 	 4.782398e+08 	 6.987172e+38 	 4.566706e+38 	 2.436056e+22 	 9.207460e+09
1.20017723e+01 	 3.198063e-06 	 1.510357e+03 	 1.201603e+05 	 1.103696e+09 	 1.203417e+22 	 4.722634e+08 	 6.987161e+38 	 4.566705e+38 	 2.405883e+22 	 9.118343e+09
1.20018047e+01 	 3.234293e-06 	 1.508379e+03 	 1.188136e+05 	 1.100808e+09 	 1.188015e+22 	 4.663618e+08 	 6.987149e+38 	 4.566704e+38 	 2.376100e+22 	 9.030074e+09
1.20018371e+01 	 3.270932e-06 	 1.506405e+03 	 1.174820e+05 	 1.097928e+09 	 1.172815e+22 	 4.605342e+08 	 6.987137e+38 	 4.566703e+38 	 2.346702e+22 	 8.942646e+09
1.20018694e+01 	 3.307987e-06 	 1.504434e+03 	 1.161653e+05 	 1.095056e+09 	 1.157815e+22 	 4.547796e+08 	 6.987125e+38 	 4.566702e+38 	 2.317683e+22 	 8.856049e+09
1.20019017e+01 	 3.345461e-06 	 1.502466e+03 	 1.148634e+05 	 1.092193e+09 	 1.143013e+22 	 4.490972e+08 	 6.987114e+38 	 4.566701e+38 	 2.289038e+22 	 8.770276e+09
1.20019339e+01 	 3.383360e-06 	 1.500501e+03 	 1.135760e+05 	 1.089339e+09 	 1.128405e+22 	 4.434859e+08 	 6.987102e+38 	 4.566700e+38 	 2.260762e+22 	 8.685320e+09
1.20019662e+01 	 3.421689e-06 	 1.498540e+03 	 1.123031e+05 	 1.086493e+09 	 1.113990e+22 	 4.379450e+08 	 6.987090e+38 	 4.566699e+38 	 2.232851e+22 	 8.601172e+09
1.20019984e+01 	 3.460451e-06 	 1.496581e+03 	 1.110445e+05 	 1.083655e+09 	 1.099763e+22 	 4.324735e+08 	 6.987079e+38 	 4.566697e+38 	 2.205299e+22 	 8.517826e+09
1.20020305e+01 	 3.499653e-06 	 1.494627e+03 	 1.097999e+05 	 1.080826e+09 	 1.085724e+22 	 4.270705e+08 	 6.987067e+38 	 4.566696e+38 	 2.178102e+22 	 8.435273e+09
1.20020626e+01 	 3.539299e-06 	 1.492675e+03 	 1.085693e+05 	 1.078005e+09 	 1.071869e+22 	 4.217353e+08 	 6.987055e+38 	 4.566695e+38 	 2.151255e+22 	 8.353507e+09
1.20020947e+01 	 3.579394e-06 	 1.490727e+03 	 1.073525e+05 	 1.075193e+09 	 1.058197e+22 	 4.164668e+08 	 6.987044e+38 	 4.566694e+38 	 2.124753e+22 	 8.272520e+09
1.20021268e+01 	 3.619943e-06 	 1.488781e+03 	 1.061494e+05 	 1.072389e+09 	 1.044703e+22 	 4.112644e+08 	 6.987032e+38 	 4.566693e+38 	 2.098591e+22 	 8.192304e+09
1.20021588e+01 	 3.660952e-06 	 1.486840e+03 	 1.049597e+05 	 1.069593e+09 	 1.031387e+22 	 4.061272e+08 	 6.987020e+38 	 4.566692e+38 	 2.072766e+22 	 8.112853e+09
1.20021908e+01 	 3.702425e-06 	 1.484901e+03 	 1.037833e+05 	 1.066806e+09 	 1.018246e+22 	 4.010543e+08 	 6.987008e+38 	 4.566690e+38 	 2.047272e+22 	 8.034159e+09
1.20022227e+01 	 3.744368e-06 	 1.482965e+03 	 1.026202e+05 	 1.064026e+09 	 1.005277e+22 	 3.960449e+08 	 6.986997e+38 	 4.566689e+38 	 2.022105e+22 	 7.956215e+09
1.20022546e+01 	 3.786787e-06 	 1.481033e+03 	 1.014700e+05 	 1.061255e+09 	 9.924778e+21 	 3.910984e+08 	 6.986985e+38 	 4.566688e+38 	 1.997262e+22 	 7.879015e+09
1.20022865e+01 	 3.829686e-06 	 1.479104e+03 	 1.003328e+05 	 1.058493e+09 	 9.798467e+21 	 3.862137e+08 	 6.986973e+38 	 4.566687e+38 	 1.972737e+22 	 7.802550e+09
1.20023184e+01 	 3.873071e-06 	 1.477178e+03 	 9.920832e+04 	 1.055738e+09 	 9.673811e+21 	 3.813903e+08 	 6.986962e+38 	 4.566685e+38 	 1.948526e+22 	 7.726815e+09
1.20023502e+01 	 3.916947e-06 	 1.475256e+03 	 9.809643e+04 	 1.052992e+09 	 9.550788e+21 	 3.766273e+08 	 6.986950e+38 	 4.566684e+38 	 1.924625e+22 	 7.651802e+09
1.20023820e+01 	 3.961320e-06 	 1.473337e+03 	 9.699700e+04 	 1.050254e+09 	 9.429377e+21 	 3.719239e+08 	 6.986938e+38 	 4.566683e+38 	 1.901031e+22 	 7.577505e+09
1.20024137e+01 	 4.006197e-06 	 1.471420e+03 	 9.590989e+04 	 1.047524e+09 	 9.309556e+21 	 3.672795e+08 	 6.986926e+38 	 4.566682e+38 	 1.877738e+22 	 7.503917e+09
1.20024455e+01 	 4.051581e-06 	 1.469507e+03 	 9.483497e+04 	 1.044802e+09 	 9.191303e+21 	 3.626932e+08 	 6.986915e+38 	 4.566680e+38 	 1.854744e+22 	 7.431031e+09
1.20024772e+01 	 4.097480e-06 	 1.467598e+03 	 9.377210e+04 	 1.042088e+09 	 9.074599e+21 	 3.581644e+08 	 6.986903e+38 	 4.566679e+38 	 1.832043e+22 	 7.358841e+09
1.20025088e+01 	 4.143899e-06 	 1.465691e+03 	 9.272114e+04 	 1.039382e+09 	 8.959421e+21 	 3.536923e+08 	 6.986891e+38 	 4.566678e+38 	 1.809633e+22 	 7.287339e+09
1.20025404e+01 	 4.190843e-06 	 1.463788e+03 	 9.168195e+04 	 1.036685e+09 	 8.845749e+21 	 3.492762e+08 	 6.986880e+38 	 4.566677e+38 	 1.787508e+22 	 7.216521e+09
1.20025720e+01 	 4.238320e-06 	 1.461888e+03 	 9.065442e+04 	 1.033995e+09 	 8.733564e+21 	 3.449154e+08 	 6.986868e+38 	 4.566675e+38 	 1.765667e+22 	 7.146379e+09
1.20026036e+01 	 4.286334e-06 	 1.459991e+03 	 8.963840e+04 	 1.031313e+09 	 8.622846e+21 	 3.406092e+08 	 6.986856e+38 	 4.566674e+38 	 1.744104e+22 	 7.076907e+09
1.20026351e+01 	 4.334892e-06 	 1.458097e+03 	 8.863377e+04 	 1.028639e+09 	 8.513574e+21 	 3.363569e+08 	 6.986844e+38 	 4.566673e+38 	 1.722816e+22 	 7.008098e+09
1.20026666e+01 	 4.384001e-06 	 1.456206e+03 	 8.764039e+04 	 1.025974e+09 	 8.405731e+21 	 3.321579e+08 	 6.986833e+38 	 4.566671e+38 	 1.701800e+22 	 6.939947e+09
1.20026981e+01 	 4.433666e-06 	 1.454319e+03 	 8.665815e+04 	 1.023316e+09 	 8.299296e+21 	 3.280115e+08 	 6.986821e+38 	 4.566670e+38 	 1.681051e+22 	 6.872447e+09
1.20027296e+01 	 4.483893e-06 	 1.452435e+03 	 8.568692e+04 	 1.020666e+09 	 8.194250e+21 	 3.239170e+08 	 6.986809e+38 	 4.566669e+38 	 1.660567e+22 	 6.805592e+09
1.20027610e+01 	 4.534690e-06 	 1.450553e+03 	 8.472658e+04 	 1.018024e+09 	 8.090575e+21 	 3.198737e+08 	 6.986798e+38 	 4.566667e+38 	 1.640344e+22 	 6.739377e+09
1.20027924e+01 	 4.586061e-06 	 1.448676e+03 	 8.377699e+04 	 1.015389e+09 	 7.988253e+21 	 3.158811e+08 	 6.986786e+38 	 4.566666e+38 	 1.620378e+22 	 6.673794e+09
1.20028237e+01 	 4.638015e-06 	 1.446801e+03 	 8.283805e+04 	 1.012763e+09 	 7.887266e+21 	 3.119385e+08 	 6.986774e+38 	 4.566665e+38 	 1.600666e+22 	 6.608838e+09
1.20028550e+01 	 4.690558e-06 	 1.444929e+03 	 8.190963e+04 	 1.010144e+09 	 7.787597e+21 	 3.080452e+08 	 6.986762e+38 	 4.566663e+38 	 1.581204e+22 	 6.544504e+09
1.20028863e+01 	 4.743696e-06 	 1.443061e+03 	 8.099162e+04 	 1.007534e+09 	 7.689227e+21 	 3.042007e+08 	 6.986751e+38 	 4.566662e+38 	 1.561990e+22 	 6.480784e+09
1.20029176e+01 	 4.797436e-06 	 1.441195e+03 	 8.008390e+04 	 1.004931e+09 	 7.592140e+21 	 3.004043e+08 	 6.986739e+38 	 4.566661e+38 	 1.543021e+22 	 6.417675e+09
1.20029488e+01 	 4.851784e-06 	 1.439333e+03 	 7.918635e+04 	 1.002335e+09 	 7.496317e+21 	 2.966555e+08 	 6.986727e+38 	 4.566659e+38 	 1.524292e+22 	 6.355169e+09
1.20029800e+01 	 4.906749e-06 	 1.437474e+03 	 7.829886e+04 	 9.997478e+08 	 7.401743e+21 	 2.929535e+08 	 6.986715e+38 	 4.566658e+38 	 1.505801e+22 	 6.293261e+09
1.20030112e+01 	 4.962336e-06 	 1.435618e+03 	 7.742132e+04 	 9.971680e+08 	 7.308400e+21 	 2.892980e+08 	 6.986704e+38 	 4.566656e+38 	 1.487544e+22 	 6.231946e+09
1.20030423e+01 	 5.018553e-06 	 1.433766e+03 	 7.655361e+04 	 9.945959e+08 	 7.216273e+21 	 2.856882e+08 	 6.986692e+38 	 4.566655e+38 	 1.469519e+22 	 6.171218e+09
1.20030735e+01 	 5.075406e-06 	 1.431916e+03 	 7.569562e+04 	 9.920315e+08 	 7.125344e+21 	 2.821235e+08 	 6.986680e+38 	 4.566654e+38 	 1.451722e+22 	 6.111071e+09
1.20031045e+01 	 5.132904e-06 	 1.430070e+03 	 7.484726e+04 	 9.894747e+08 	 7.035598e+21 	 2.786035e+08 	 6.986668e+38 	 4.566652e+38 	 1.434151e+22 	 6.051500e+09
1.20031356e+01 	 5.191053e-06 	 1.428226e+03 	 7.400840e+04 	 9.869255e+08 	 6.947020e+21 	 2.751276e+08 	 6.986657e+38 	 4.566651e+38 	 1.416803e+22 	 5.992500e+09
1.20031666e+01 	 5.249862e-06 	 1.426386e+03 	 7.317894e+04 	 9.843839e+08 	 6.859594e+21 	 2.716951e+08 	 6.986645e+38 	 4.566649e+38 	 1.399673e+22 	 5.934065e+09
1.20031976e+01 	 5.309336e-06 	 1.424549e+03 	 7.235878e+04 	 9.818499e+08 	 6.773304e+21 	 2.683057e+08 	 6.986633e+38 	 4.566648e+38 	 1.382761e+22 	 5.876189e+09
1.20032286e+01 	 5.369484e-06 	 1.422715e+03 	 7.154781e+04 	 9.793234e+08 	 6.688135e+21 	 2.649586e+08 	 6.986621e+38 	 4.566647e+38 	 1.366063e+22 	 5.818868e+09
1.20032596e+01 	 5.430313e-06 	 1.420884e+03 	 7.074593e+04 	 9.768045e+08 	 6.604073e+21 	 2.616534e+08 	 6.986610e+38 	 4.566645e+38 	 1.349575e+22 	 5.762097e+09
1.20032905e+01 	 5.491832e-06 	 1.419056e+03 	 6.995304e+04 	 9.742931e+08 	 6.521102e+21 	 2.583896e+08 	 6.986598e+38 	 4.566644e+38 	 1.333296e+22 	 5.705870e+09
1.20033214e+01 	 5.554048e-06 	 1.417232e+03 	 6.916903e+04 	 9.717892e+08 	 6.439209e+21 	 2.551667e+08 	 6.986586e+38 	 4.566642e+38 	 1.317222e+22 	 5.650181e+09
1.20033522e+01 	 5.616968e-06 	 1.415410e+03 	 6.839381e+04 	 9.692927e+08 	 6.358378e+21 	 2.519841e+08 	 6.986574e+38 	 4.566641e+38 	 1.301352e+22 	 5.595027e+09
1.20033831e+01 	 5.680602e-06 	 1.413592e+03 	 6.762728e+04 	 9.668038e+08 	 6.278597e+21 	 2.488413e+08 	 6.986562e+38 	 4.566639e+38 	 1.285681e+22 	 5.540402e+09
1.20034139e+01 	 5.744956e-06 	 1.411776e+03 	 6.686934e+04 	 9.643222e+08 	 6.199850e+21 	 2.457378e+08 	 6.986551e+38 	 4.566638e+38 	 1.270208e+22 	 5.486300e+09
1.20034447e+01 	 5.810039e-06 	 1.409964e+03 	 6.611989e+04 	 9.618481e+08 	 6.122124e+21 	 2.426732e+08 	 6.986539e+38 	 4.566636e+38 	 1.254930e+22 	 5.432718e+09
1.20034754e+01 	 5.875860e-06 	 1.408155e+03 	 6.537884e+04 	 9.593813e+08 	 6.045406e+21 	 2.396469e+08 	 6.986527e+38 	 4.566635e+38 	 1.239845e+22 	 5.379649e+09
1.20035061e+01 	 5.942426e-06 	 1.406349e+03 	 6.464610e+04 	 9.569219e+08 	 5.969682e+21 	 2.366585e+08 	 6.986515e+38 	 4.566633e+38 	 1.224949e+22 	 5.327090e+09
1.20035368e+01 	 6.009747e-06 	 1.404546e+03 	 6.392157e+04 	 9.544698e+08 	 5.894939e+21 	 2.337075e+08 	 6.986504e+38 	 4.566632e+38 	 1.210241e+22 	 5.275035e+09
1.20035675e+01 	 6.077830e-06 	 1.402746e+03 	 6.320517e+04 	 9.520251e+08 	 5.821164e+21 	 2.307934e+08 	 6.986492e+38 	 4.566630e+38 	 1.195718e+22 	 5.223480e+09
1.20035982e+01 	 6.146684e-06 	 1.400949e+03 	 6.249679e+04 	 9.495877e+08 	 5.748344e+21 	 2.279158e+08 	 6.986480e+38 	 4.566629e+38 	 1.181378e+22 	 5.172420e+09
1.20036288e+01 	 6.216319e-06 	 1.399155e+03 	 6.179635e+04 	 9.471576e+08 	 5.676467e+21 	 2.250741e+08 	 6.986468e+38 	 4.566627e+38 	 1.167218e+22 	 5.121851e+09
1.20036594e+01 	 6.286742e-06 	 1.397365e+03 	 6.110376e+04 	 9.447347e+08 	 5.605519e+21 	 2.222680e+08 	 6.986456e+38 	 4.566626e+38 	 1.153236e+22 	 5.071767e+09
1.20036900e+01 	 6.357964e-06 	 1.395577e+03 	 6.041893e+04 	 9.423190e+08 	 5.535490e+21 	 2.194971e+08 	 6.986445e+38 	 4.566624e+38 	 1.139429e+22 	 5.022164e+09
1.20037205e+01 	 6.429992e-06 	 1.393792e+03 	 5.974178e+04 	 9.399106e+08 	 5.466365e+21 	 2.167607e+08 	 6.986433e+38 	 4.566622e+38 	 1.125796e+22 	 4.973037e+09
1.20037510e+01 	 6.502836e-06 	 1.392011e+03 	 5.907221e+04 	 9.375094e+08 	 5.398135e+21 	 2.140587e+08 	 6.986421e+38 	 4.566621e+38 	 1.112333e+22 	 4.924383e+09
1.20037815e+01 	 6.576506e-06 	 1.390232e+03 	 5.841016e+04 	 9.351154e+08 	 5.330786e+21 	 2.113904e+08 	 6.986409e+38 	 4.566619e+38 	 1.099040e+22 	 4.876196e+09
1.20038120e+01 	 6.651010e-06 	 1.388457e+03 	 5.775552e+04 	 9.327286e+08 	 5.264308e+21 	 2.087555e+08 	 6.986397e+38 	 4.566618e+38 	 1.085913e+22 	 4.828472e+09
1.20038424e+01 	 6.726358e-06 	 1.386685e+03 	 5.710822e+04 	 9.303489e+08 	 5.198688e+21 	 2.061535e+08 	 6.986385e+38 	 4.566616e+38 	 1.072951e+22 	 4.781207e+09
1.20038729e+01 	 6.802560e-06 	 1.384916e+03 	 5.646817e+04 	 9.279763e+08 	 5.133915e+21 	 2.035841e+08 	 6.986374e+38 	 4.566615e+38 	 1.060151e+22 	 4.734397e+09
1.20039033e+01 	 6.879625e-06 	 1.383149e+03 	 5.583530e+04 	 9.256109e+08 	 5.069979e+21 	 2.010469e+08 	 6.986362e+38 	 4.566613e+38 	 1.047511e+22 	 4.688037e+09
1.20039336e+01 	 6.957564e-06 	 1.381386e+03 	 5.520951e+04 	 9.232525e+08 	 5.006867e+21 	 1.985414e+08 	 6.986350e+38 	 4.566611e+38 	 1.035029e+22 	 4.642122e+09
1.20039640e+01 	 7.036385e-06 	 1.379626e+03 	 5.459075e+04 	 9.209012e+08 	 4.944570e+21 	 1.960672e+08 	 6.986338e+38 	 4.566610e+38 	 1.022704e+22 	 4.596650e+09
1.20039943e+01 	 7.116099e-06 	 1.377869e+03 	 5.397892e+04 	 9.185570e+08 	 4.883075e+21 	 1.936239e+08 	 6.986326e+38 	 4.566608e+38 	 1.010532e+22 	 4.551615e+09
1.20040246e+01 	 7.196716e-06 	 1.376115e+03 	 5.337394e+04 	 9.162197e+08 	 4.822373e+21 	 1.912112e+08 	 6.986314e+38 	 4.566606e+38 	 9.985126e+21 	 4.507013e+09
1.20040549e+01 	 7.278247e-06 	 1.374364e+03 	 5.277575e+04 	 9.138895e+08 	 4.762454e+21 	 1.888287e+08 	 6.986303e+38 	 4.566605e+38 	 9.866432e+21 	 4.462840e+09
1.20040851e+01 	 7.360701e-06 	 1.372616e+03 	 5.218426e+04 	 9.115662e+08 	 4.703306e+21 	 1.864760e+08 	 6.986291e+38 	 4.566603e+38 	 9.749220e+21 	 4.419093e+09
1.20041154e+01 	 7.444090e-06 	 1.370871e+03 	 5.159939e+04 	 9.092500e+08 	 4.644921e+21 	 1.841527e+08 	 6.986279e+38 	 4.566601e+38 	 9.633470e+21 	 4.375767e+09
1.20041456e+01 	 7.528423e-06 	 1.369129e+03 	 5.102109e+04 	 9.069406e+08 	 4.587286e+21 	 1.818584e+08 	 6.986267e+38 	 4.566600e+38 	 9.519163e+21 	 4.332858e+09
1.20041757e+01 	 7.613712e-06 	 1.367390e+03 	 5.044926e+04 	 9.046382e+08 	 4.530394e+21 	 1.795929e+08 	 6.986255e+38 	 4.566598e+38 	 9.406280e+21 	 4.290363e+09
1.20042059e+01 	 7.699967e-06 	 1.365654e+03 	 4.988385e+04 	 9.023427e+08 	 4.474233e+21 	 1.773556e+08 	 6.986243e+38 	 4.566596e+38 	 9.294804e+21 	 4.248277e+09
1.20042360e+01 	 7.787199e-06 	 1.363921e+03 	 4.932477e+04 	 9.000541e+08 	 4.418795e+21 	 1.751464e+08 	 6.986231e+38 	 4.566595e+38 	 9.184717e+21 	 4.206596e+09
1.20042662e+01 	 7.875419e-06 	 1.362191e+03 	 4.877196e+04 	 8.977724e+08 	 4.364069e+21 	 1.729647e+08 	 6.986220e+38 	 4.566593e+38 	 9.075999e+21 	 4.165317e+09
1.20042963e+01 	 7.964639e-06 	 1.360464e+03 	 4.822534e+04 	 8.954975e+08 	 4.310047e+21 	 1.708104e+08 	 6.986208e+38 	 4.566591e+38 	 8.968635e+21 	 4.124435e+09
1.20043263e+01 	 8.054870e-06 	 1.358740e+03 	 4.768485e+04 	 8.932295e+08 	 4.256719e+21 	 1.686829e+08 	 6.986196e+38 	 4.566590e+38 	 8.862605e+21 	 4.083948e+09
1.20043564e+01 	 8.146123e-06 	 1.357019e+03 	 4.715041e+04 	 8.909682e+08 	 4.204076e+21 	 1.665821e+08 	 6.986184e+38 	 4.566588e+38 	 8.757892e+21 	 4.043851e+09
1.20043864e+01 	 8.238410e-06 	 1.355301e+03 	 4.662197e+04 	 8.887137e+08 	 4.152108e+21 	 1.645075e+08 	 6.986172e+38 	 4.566586e+38 	 8.654481e+21 	 4.004141e+09
1.20044164e+01 	 8.331742e-06 	 1.353586e+03 	 4.609945e+04 	 8.864660e+08 	 4.100808e+21 	 1.624589e+08 	 6.986160e+38 	 4.566585e+38 	 8.552353e+21 	 3.964814e+09
1.20044464e+01 	 8.426132e-06 	 1.351874e+03 	 4.558278e+04 	 8.842251e+08 	 4.050166e+21 	 1.604358e+08 	 6.986148e+38 	 4.566583e+38 	 8.451494e+21 	 3.925866e+09
1.20044763e+01 	 8.521591e-06 	 1.350165e+03 	 4.507191e+04 	 8.819910e+08 	 4.000174e+21 	 1.584381e+08 	 6.986136e+38 	 4.566581e+38 	 8.351886e+21 	 3.887294e+09
1.20045063e+01 	 8.618132e-06 	 1.348459e+03 	 4.456676e+04 	 8.797635e+08 	 3.950823e+21 	 1.564653e+08 	 6.986124e+38 	 4.566579e+38 	 8.253512e+21 	 3.849094e+09
1.20045362e+01 	 8.715766e-06 	 1.346756e+03 	 4.406727e+04 	 8.775427e+08 	 3.902104e+21 	 1.545172e+08 	 6.986112e+38 	 4.566578e+38 	 8.156358e+21 	 3.811263e+09
1.20045661e+01 	 8.814506e-06 	 1.345056e+03 	 4.357338e+04 	 8.753286e+08 	 3.854010e+21 	 1.525934e+08 	 6.986101e+38 	 4.566576e+38 	 8.060406e+21 	 3.773797e+09
1.20045960e+01 	 8.914365e-06 	 1.343359e+03 	 4.308503e+04 	 8.731211e+08 	 3.806532e+21 	 1.506937e+08 	 6.986089e+38 	 4.566574e+38 	 7.965643e+21 	 3.736693e+09
1.20046258e+01 	 9.015356e-06 	 1.341665e+03 	 4.260215e+04 	 8.709203e+08 	 3.759662e+21 	 1.488177e+08 	 6.986077e+38 	 4.566572e+38 	 7.872053e+21 	 3.699947e+09
1.20046557e+01 	 9.117490e-06 	 1.339974e+03 	 4.212468e+04 	 8.687262e+08 	 3.713392e+21 	 1.469652e+08 	 6.986065e+38 	 4.566570e+38 	 7.779622e+21 	 3.663555e+09
1.20046855e+01 	 9.220782e-06 	 1.338286e+03 	 4.165256e+04 	 8.665387e+08 	 3.667714e+21 	 1.451358e+08 	 6.986053e+38 	 4.566569e+38 	 7.688333e+21 	 3.627515e+09
1.20047153e+01 	 9.325244e-06 	 1.336600e+03 	 4.118574e+04 	 8.643577e+08 	 3.622620e+21 	 1.433293e+08 	 6.986041e+38 	 4.566567e+38 	 7.598173e+21 	 3.591824e+09
1.20047450e+01 	 9.430889e-06 	 1.334918e+03 	 4.072414e+04 	 8.621833e+08 	 3.578104e+21 	 1.415453e+08 	 6.986029e+38 	 4.566565e+38 	 7.509126e+21 	 3.556477e+09
1.20047748e+01 	 9.537732e-06 	 1.333239e+03 	 4.026772e+04 	 8.600155e+08 	 3.534156e+21 	 1.397837e+08 	 6.986017e+38 	 4.566563e+38 	 7.421179e+21 	 3.521472e+09
