r (km)        	 u (km/s)    	 cs (km/s)   	 rho (g/cm3) 	 T (K)       	 P (dyne/cm2) 	 phi         	 L (erg/s)   	 L* (erg/s)  	 E (erg)     	 tau        
1.20000548e+01 	 7.698348e-06 	 2.922426e+03 	 7.913917e+04 	 1.377388e+09 	 1.585751e+22 	 3.809558e+08 	 7.859537e+38 	 5.136488e+38 	 3.764835e+22 	 5.254855e+09
1.20001783e+01 	 7.788264e-06 	 2.918523e+03 	 7.822368e+04 	 1.373711e+09 	 1.566443e+22 	 3.760421e+08 	 7.859469e+38 	 5.136472e+38 	 3.720860e+22 	 5.202749e+09
1.20003017e+01 	 7.879230e-06 	 2.914626e+03 	 7.731878e+04 	 1.370045e+09 	 1.547381e+22 	 3.711921e+08 	 7.859401e+38 	 5.136455e+38 	 3.677424e+22 	 5.151151e+09
1.20004250e+01 	 7.971259e-06 	 2.910736e+03 	 7.642435e+04 	 1.366390e+09 	 1.528561e+22 	 3.664049e+08 	 7.859333e+38 	 5.136439e+38 	 3.634522e+22 	 5.100055e+09
1.20005481e+01 	 8.064363e-06 	 2.906853e+03 	 7.554026e+04 	 1.362747e+09 	 1.509979e+22 	 3.616798e+08 	 7.859265e+38 	 5.136422e+38 	 3.592145e+22 	 5.049457e+09
1.20006710e+01 	 8.158555e-06 	 2.902977e+03 	 7.466640e+04 	 1.359116e+09 	 1.491634e+22 	 3.570159e+08 	 7.859197e+38 	 5.136406e+38 	 3.550288e+22 	 4.999352e+09
1.20007939e+01 	 8.253848e-06 	 2.899108e+03 	 7.380266e+04 	 1.355495e+09 	 1.473521e+22 	 3.524125e+08 	 7.859130e+38 	 5.136389e+38 	 3.508943e+22 	 4.949735e+09
1.20009166e+01 	 8.350253e-06 	 2.895246e+03 	 7.294890e+04 	 1.351886e+09 	 1.455637e+22 	 3.478687e+08 	 7.859062e+38 	 5.136373e+38 	 3.468104e+22 	 4.900602e+09
1.20010391e+01 	 8.447785e-06 	 2.891391e+03 	 7.210502e+04 	 1.348288e+09 	 1.437980e+22 	 3.433838e+08 	 7.858994e+38 	 5.136356e+38 	 3.427765e+22 	 4.851948e+09
1.20011616e+01 	 8.546456e-06 	 2.887542e+03 	 7.127090e+04 	 1.344701e+09 	 1.420547e+22 	 3.389570e+08 	 7.858926e+38 	 5.136340e+38 	 3.387919e+22 	 4.803768e+09
1.20012839e+01 	 8.646280e-06 	 2.883701e+03 	 7.044643e+04 	 1.341126e+09 	 1.403335e+22 	 3.345875e+08 	 7.858858e+38 	 5.136323e+38 	 3.348560e+22 	 4.756058e+09
1.20014060e+01 	 8.747270e-06 	 2.879866e+03 	 6.963150e+04 	 1.337561e+09 	 1.386340e+22 	 3.302747e+08 	 7.858791e+38 	 5.136307e+38 	 3.309682e+22 	 4.708813e+09
1.20015281e+01 	 8.849440e-06 	 2.876038e+03 	 6.882599e+04 	 1.334008e+09 	 1.369561e+22 	 3.260177e+08 	 7.858723e+38 	 5.136290e+38 	 3.271280e+22 	 4.662030e+09
1.20016500e+01 	 8.952803e-06 	 2.872217e+03 	 6.802981e+04 	 1.330465e+09 	 1.352994e+22 	 3.218159e+08 	 7.858655e+38 	 5.136274e+38 	 3.233345e+22 	 4.615702e+09
1.20017717e+01 	 9.057374e-06 	 2.868403e+03 	 6.724283e+04 	 1.326934e+09 	 1.336636e+22 	 3.176685e+08 	 7.858588e+38 	 5.136257e+38 	 3.195874e+22 	 4.569827e+09
1.20018934e+01 	 9.163166e-06 	 2.864595e+03 	 6.646496e+04 	 1.323414e+09 	 1.320485e+22 	 3.135748e+08 	 7.858520e+38 	 5.136241e+38 	 3.158859e+22 	 4.524400e+09
1.20020149e+01 	 9.270195e-06 	 2.860795e+03 	 6.569608e+04 	 1.319904e+09 	 1.304538e+22 	 3.095341e+08 	 7.858452e+38 	 5.136224e+38 	 3.122296e+22 	 4.479416e+09
1.20021363e+01 	 9.378474e-06 	 2.857001e+03 	 6.493611e+04 	 1.316406e+09 	 1.288792e+22 	 3.055457e+08 	 7.858385e+38 	 5.136207e+38 	 3.086178e+22 	 4.434871e+09
1.20022576e+01 	 9.488017e-06 	 2.853214e+03 	 6.418492e+04 	 1.312918e+09 	 1.273245e+22 	 3.016090e+08 	 7.858317e+38 	 5.136191e+38 	 3.050500e+22 	 4.390761e+09
1.20023787e+01 	 9.598841e-06 	 2.849433e+03 	 6.344242e+04 	 1.309442e+09 	 1.257894e+22 	 2.977233e+08 	 7.858250e+38 	 5.136174e+38 	 3.015256e+22 	 4.347082e+09
1.20024997e+01 	 9.710959e-06 	 2.845660e+03 	 6.270851e+04 	 1.305976e+09 	 1.242737e+22 	 2.938879e+08 	 7.858182e+38 	 5.136157e+38 	 2.980440e+22 	 4.303830e+09
1.20026206e+01 	 9.824387e-06 	 2.841893e+03 	 6.198309e+04 	 1.302521e+09 	 1.227771e+22 	 2.901021e+08 	 7.858115e+38 	 5.136140e+38 	 2.946048e+22 	 4.261000e+09
1.20027414e+01 	 9.939140e-06 	 2.838133e+03 	 6.126607e+04 	 1.299076e+09 	 1.212993e+22 	 2.863653e+08 	 7.858047e+38 	 5.136124e+38 	 2.912074e+22 	 4.218589e+09
1.20028620e+01 	 1.005523e-05 	 2.834380e+03 	 6.055733e+04 	 1.295643e+09 	 1.198401e+22 	 2.826769e+08 	 7.857980e+38 	 5.136107e+38 	 2.878513e+22 	 4.176592e+09
1.20029826e+01 	 1.017268e-05 	 2.830633e+03 	 5.985680e+04 	 1.292220e+09 	 1.183994e+22 	 2.790363e+08 	 7.857912e+38 	 5.136090e+38 	 2.845358e+22 	 4.135006e+09
1.20031030e+01 	 1.029151e-05 	 2.826894e+03 	 5.916437e+04 	 1.288807e+09 	 1.169767e+22 	 2.754428e+08 	 7.857845e+38 	 5.136073e+38 	 2.812607e+22 	 4.093826e+09
1.20032232e+01 	 1.041172e-05 	 2.823161e+03 	 5.847995e+04 	 1.285406e+09 	 1.155720e+22 	 2.718957e+08 	 7.857777e+38 	 5.136057e+38 	 2.780252e+22 	 4.053049e+09
1.20033434e+01 	 1.053333e-05 	 2.819434e+03 	 5.780345e+04 	 1.282015e+09 	 1.141849e+22 	 2.683946e+08 	 7.857710e+38 	 5.136040e+38 	 2.748290e+22 	 4.012671e+09
1.20034635e+01 	 1.065637e-05 	 2.815715e+03 	 5.713477e+04 	 1.278634e+09 	 1.128152e+22 	 2.649388e+08 	 7.857643e+38 	 5.136023e+38 	 2.716715e+22 	 3.972688e+09
1.20035834e+01 	 1.078084e-05 	 2.812002e+03 	 5.647383e+04 	 1.275264e+09 	 1.114628e+22 	 2.615277e+08 	 7.857575e+38 	 5.136006e+38 	 2.685522e+22 	 3.933096e+09
1.20037032e+01 	 1.090677e-05 	 2.808295e+03 	 5.582053e+04 	 1.271905e+09 	 1.101273e+22 	 2.581608e+08 	 7.857508e+38 	 5.135989e+38 	 2.654706e+22 	 3.893891e+09
1.20038229e+01 	 1.103416e-05 	 2.804596e+03 	 5.517480e+04 	 1.268556e+09 	 1.088086e+22 	 2.548374e+08 	 7.857440e+38 	 5.135972e+38 	 2.624264e+22 	 3.855070e+09
1.20039425e+01 	 1.116305e-05 	 2.800903e+03 	 5.453653e+04 	 1.265217e+09 	 1.075065e+22 	 2.515570e+08 	 7.857373e+38 	 5.135956e+38 	 2.594189e+22 	 3.816630e+09
1.20040619e+01 	 1.129344e-05 	 2.797216e+03 	 5.390564e+04 	 1.261889e+09 	 1.062207e+22 	 2.483191e+08 	 7.857306e+38 	 5.135939e+38 	 2.564479e+22 	 3.778565e+09
1.20041813e+01 	 1.142536e-05 	 2.793537e+03 	 5.328206e+04 	 1.258572e+09 	 1.049510e+22 	 2.451230e+08 	 7.857238e+38 	 5.135922e+38 	 2.535127e+22 	 3.740873e+09
1.20043005e+01 	 1.155881e-05 	 2.789864e+03 	 5.266569e+04 	 1.255264e+09 	 1.036972e+22 	 2.419683e+08 	 7.857171e+38 	 5.135905e+38 	 2.506129e+22 	 3.703551e+09
1.20044196e+01 	 1.169383e-05 	 2.786197e+03 	 5.205644e+04 	 1.251967e+09 	 1.024591e+22 	 2.388543e+08 	 7.857104e+38 	 5.135888e+38 	 2.477481e+22 	 3.666593e+09
1.20045387e+01 	 1.183042e-05 	 2.782538e+03 	 5.145425e+04 	 1.248680e+09 	 1.012366e+22 	 2.357807e+08 	 7.857037e+38 	 5.135871e+38 	 2.449179e+22 	 3.629999e+09
1.20046576e+01 	 1.196861e-05 	 2.778885e+03 	 5.085902e+04 	 1.245404e+09 	 1.000293e+22 	 2.327468e+08 	 7.856969e+38 	 5.135854e+38 	 2.421218e+22 	 3.593762e+09
1.20047763e+01 	 1.210842e-05 	 2.775238e+03 	 5.027068e+04 	 1.242137e+09 	 9.883714e+21 	 2.297521e+08 	 7.856902e+38 	 5.135837e+38 	 2.393594e+22 	 3.557881e+09
1.20048950e+01 	 1.224985e-05 	 2.771598e+03 	 4.968914e+04 	 1.238881e+09 	 9.765990e+21 	 2.267962e+08 	 7.856835e+38 	 5.135820e+38 	 2.366303e+22 	 3.522351e+09
1.20050136e+01 	 1.239294e-05 	 2.767965e+03 	 4.911433e+04 	 1.235635e+09 	 9.649738e+21 	 2.238784e+08 	 7.856768e+38 	 5.135803e+38 	 2.339340e+22 	 3.487170e+09
1.20051321e+01 	 1.253770e-05 	 2.764338e+03 	 4.854617e+04 	 1.232399e+09 	 9.534938e+21 	 2.209985e+08 	 7.856700e+38 	 5.135785e+38 	 2.312702e+22 	 3.452334e+09
1.20052504e+01 	 1.268415e-05 	 2.760718e+03 	 4.798458e+04 	 1.229174e+09 	 9.421573e+21 	 2.181557e+08 	 7.856633e+38 	 5.135768e+38 	 2.286385e+22 	 3.417839e+09
1.20053687e+01 	 1.283232e-05 	 2.757105e+03 	 4.742949e+04 	 1.225958e+09 	 9.309623e+21 	 2.153497e+08 	 7.856566e+38 	 5.135751e+38 	 2.260383e+22 	 3.383682e+09
1.20054868e+01 	 1.298221e-05 	 2.753498e+03 	 4.688082e+04 	 1.222752e+09 	 9.199071e+21 	 2.125799e+08 	 7.856499e+38 	 5.135734e+38 	 2.234695e+22 	 3.349861e+09
1.20056048e+01 	 1.313385e-05 	 2.749897e+03 	 4.633850e+04 	 1.219557e+09 	 9.089897e+21 	 2.098460e+08 	 7.856431e+38 	 5.135717e+38 	 2.209314e+22 	 3.316372e+09
1.20057228e+01 	 1.328727e-05 	 2.746304e+03 	 4.580245e+04 	 1.216371e+09 	 8.982085e+21 	 2.071474e+08 	 7.856364e+38 	 5.135700e+38 	 2.184238e+22 	 3.283211e+09
1.20058406e+01 	 1.344248e-05 	 2.742716e+03 	 4.527261e+04 	 1.213196e+09 	 8.875616e+21 	 2.044837e+08 	 7.856297e+38 	 5.135682e+38 	 2.159463e+22 	 3.250376e+09
1.20059583e+01 	 1.359950e-05 	 2.739135e+03 	 4.474889e+04 	 1.210030e+09 	 8.770475e+21 	 2.018544e+08 	 7.856230e+38 	 5.135665e+38 	 2.134986e+22 	 3.217863e+09
1.20060759e+01 	 1.375836e-05 	 2.735561e+03 	 4.423123e+04 	 1.206874e+09 	 8.666643e+21 	 1.992591e+08 	 7.856163e+38 	 5.135648e+38 	 2.110801e+22 	 3.185669e+09
1.20061934e+01 	 1.391907e-05 	 2.731993e+03 	 4.371956e+04 	 1.203728e+09 	 8.564103e+21 	 1.966973e+08 	 7.856096e+38 	 5.135631e+38 	 2.086906e+22 	 3.153792e+09
1.20063109e+01 	 1.408166e-05 	 2.728432e+03 	 4.321380e+04 	 1.200592e+09 	 8.462839e+21 	 1.941686e+08 	 7.856028e+38 	 5.135613e+38 	 2.063298e+22 	 3.122228e+09
1.20064282e+01 	 1.424615e-05 	 2.724878e+03 	 4.271390e+04 	 1.197466e+09 	 8.362834e+21 	 1.916726e+08 	 7.855961e+38 	 5.135596e+38 	 2.039972e+22 	 3.090973e+09
1.20065454e+01 	 1.441256e-05 	 2.721329e+03 	 4.221978e+04 	 1.194349e+09 	 8.264073e+21 	 1.892089e+08 	 7.855894e+38 	 5.135579e+38 	 2.016924e+22 	 3.060026e+09
1.20066625e+01 	 1.458092e-05 	 2.717788e+03 	 4.173138e+04 	 1.191242e+09 	 8.166540e+21 	 1.867770e+08 	 7.855827e+38 	 5.135561e+38 	 1.994153e+22 	 3.029383e+09
1.20067795e+01 	 1.475124e-05 	 2.714252e+03 	 4.124863e+04 	 1.188145e+09 	 8.070218e+21 	 1.843764e+08 	 7.855760e+38 	 5.135544e+38 	 1.971654e+22 	 2.999041e+09
1.20068965e+01 	 1.492355e-05 	 2.710724e+03 	 4.077146e+04 	 1.185058e+09 	 7.975091e+21 	 1.820069e+08 	 7.855692e+38 	 5.135526e+38 	 1.949423e+22 	 2.968998e+09
1.20070133e+01 	 1.509787e-05 	 2.707201e+03 	 4.029981e+04 	 1.181980e+09 	 7.881145e+21 	 1.796681e+08 	 7.855625e+38 	 5.135509e+38 	 1.927457e+22 	 2.939250e+09
1.20071300e+01 	 1.527424e-05 	 2.703685e+03 	 3.983362e+04 	 1.178912e+09 	 7.788365e+21 	 1.773594e+08 	 7.855558e+38 	 5.135491e+38 	 1.905754e+22 	 2.909794e+09
1.20072466e+01 	 1.545266e-05 	 2.700176e+03 	 3.937282e+04 	 1.175854e+09 	 7.696735e+21 	 1.750805e+08 	 7.855491e+38 	 5.135474e+38 	 1.884309e+22 	 2.880629e+09
1.20073632e+01 	 1.563316e-05 	 2.696673e+03 	 3.891735e+04 	 1.172805e+09 	 7.606241e+21 	 1.728311e+08 	 7.855424e+38 	 5.135456e+38 	 1.863121e+22 	 2.851750e+09
1.20074796e+01 	 1.581578e-05 	 2.693177e+03 	 3.846715e+04 	 1.169765e+09 	 7.516869e+21 	 1.706107e+08 	 7.855357e+38 	 5.135439e+38 	 1.842184e+22 	 2.823155e+09
1.20075960e+01 	 1.600053e-05 	 2.689687e+03 	 3.802216e+04 	 1.166736e+09 	 7.428602e+21 	 1.684190e+08 	 7.855289e+38 	 5.135421e+38 	 1.821497e+22 	 2.794842e+09
1.20077122e+01 	 1.618744e-05 	 2.686203e+03 	 3.758231e+04 	 1.163715e+09 	 7.341428e+21 	 1.662555e+08 	 7.855222e+38 	 5.135404e+38 	 1.801056e+22 	 2.766807e+09
1.20078284e+01 	 1.637653e-05 	 2.682726e+03 	 3.714756e+04 	 1.160704e+09 	 7.255332e+21 	 1.641200e+08 	 7.855155e+38 	 5.135386e+38 	 1.780858e+22 	 2.739049e+09
1.20079445e+01 	 1.656783e-05 	 2.679255e+03 	 3.671783e+04 	 1.157703e+09 	 7.170301e+21 	 1.620121e+08 	 7.855088e+38 	 5.135369e+38 	 1.760901e+22 	 2.711564e+09
1.20080605e+01 	 1.676136e-05 	 2.675790e+03 	 3.629307e+04 	 1.154711e+09 	 7.086322e+21 	 1.599314e+08 	 7.855021e+38 	 5.135351e+38 	 1.741180e+22 	 2.684349e+09
1.20081764e+01 	 1.695716e-05 	 2.672332e+03 	 3.587323e+04 	 1.151728e+09 	 7.003381e+21 	 1.578776e+08 	 7.854953e+38 	 5.135333e+38 	 1.721694e+22 	 2.657403e+09
1.20082922e+01 	 1.715524e-05 	 2.668881e+03 	 3.545824e+04 	 1.148755e+09 	 6.921464e+21 	 1.558502e+08 	 7.854886e+38 	 5.135315e+38 	 1.702439e+22 	 2.630722e+09
1.20084079e+01 	 1.735564e-05 	 2.665435e+03 	 3.504806e+04 	 1.145791e+09 	 6.840559e+21 	 1.538491e+08 	 7.854819e+38 	 5.135298e+38 	 1.683413e+22 	 2.604303e+09
1.20085235e+01 	 1.755838e-05 	 2.661996e+03 	 3.464262e+04 	 1.142836e+09 	 6.760652e+21 	 1.518737e+08 	 7.854752e+38 	 5.135280e+38 	 1.664613e+22 	 2.578146e+09
1.20086391e+01 	 1.776348e-05 	 2.658564e+03 	 3.424187e+04 	 1.139891e+09 	 6.681730e+21 	 1.499239e+08 	 7.854685e+38 	 5.135262e+38 	 1.646035e+22 	 2.552246e+09
1.20087545e+01 	 1.797099e-05 	 2.655138e+03 	 3.384576e+04 	 1.136955e+09 	 6.603782e+21 	 1.479992e+08 	 7.854617e+38 	 5.135244e+38 	 1.627677e+22 	 2.526601e+09
1.20088699e+01 	 1.818091e-05 	 2.651718e+03 	 3.345423e+04 	 1.134028e+09 	 6.526794e+21 	 1.460994e+08 	 7.854550e+38 	 5.135226e+38 	 1.609537e+22 	 2.501210e+09
1.20089852e+01 	 1.839329e-05 	 2.648304e+03 	 3.306722e+04 	 1.131110e+09 	 6.450754e+21 	 1.442240e+08 	 7.854483e+38 	 5.135209e+38 	 1.591612e+22 	 2.476068e+09
1.20091004e+01 	 1.860816e-05 	 2.644897e+03 	 3.268470e+04 	 1.128202e+09 	 6.375650e+21 	 1.423729e+08 	 7.854415e+38 	 5.135191e+38 	 1.573898e+22 	 2.451175e+09
1.20092155e+01 	 1.882553e-05 	 2.641496e+03 	 3.230660e+04 	 1.125302e+09 	 6.301471e+21 	 1.405457e+08 	 7.854348e+38 	 5.135173e+38 	 1.556394e+22 	 2.426527e+09
1.20093306e+01 	 1.904544e-05 	 2.638102e+03 	 3.193287e+04 	 1.122412e+09 	 6.228204e+21 	 1.387420e+08 	 7.854281e+38 	 5.135155e+38 	 1.539097e+22 	 2.402123e+09
1.20094455e+01 	 1.926792e-05 	 2.634714e+03 	 3.156347e+04 	 1.119531e+09 	 6.155838e+21 	 1.369616e+08 	 7.854214e+38 	 5.135137e+38 	 1.522005e+22 	 2.377959e+09
1.20095604e+01 	 1.949300e-05 	 2.631332e+03 	 3.119834e+04 	 1.116658e+09 	 6.084362e+21 	 1.352041e+08 	 7.854146e+38 	 5.135119e+38 	 1.505114e+22 	 2.354034e+09
1.20096752e+01 	 1.972071e-05 	 2.627956e+03 	 3.083743e+04 	 1.113795e+09 	 6.013763e+21 	 1.334694e+08 	 7.854079e+38 	 5.135101e+38 	 1.488422e+22 	 2.330346e+09
1.20097899e+01 	 1.995108e-05 	 2.624587e+03 	 3.048070e+04 	 1.110941e+09 	 5.944031e+21 	 1.317570e+08 	 7.854012e+38 	 5.135083e+38 	 1.471927e+22 	 2.306891e+09
1.20099045e+01 	 2.018414e-05 	 2.621224e+03 	 3.012810e+04 	 1.108096e+09 	 5.875155e+21 	 1.300667e+08 	 7.853944e+38 	 5.135065e+38 	 1.455627e+22 	 2.283667e+09
1.20100191e+01 	 2.041992e-05 	 2.617867e+03 	 2.977957e+04 	 1.105260e+09 	 5.807124e+21 	 1.283981e+08 	 7.853877e+38 	 5.135047e+38 	 1.439519e+22 	 2.260674e+09
1.20101336e+01 	 2.065846e-05 	 2.614517e+03 	 2.943508e+04 	 1.102433e+09 	 5.739927e+21 	 1.267511e+08 	 7.853809e+38 	 5.135028e+38 	 1.423600e+22 	 2.237907e+09
1.20102480e+01 	 2.089979e-05 	 2.611173e+03 	 2.909457e+04 	 1.099614e+09 	 5.673553e+21 	 1.251254e+08 	 7.853742e+38 	 5.135010e+38 	 1.407869e+22 	 2.215365e+09
1.20103623e+01 	 2.114393e-05 	 2.607835e+03 	 2.875800e+04 	 1.096805e+09 	 5.607992e+21 	 1.235206e+08 	 7.853675e+38 	 5.134992e+38 	 1.392323e+22 	 2.193047e+09
1.20104766e+01 	 2.139093e-05 	 2.604503e+03 	 2.842533e+04 	 1.094004e+09 	 5.543234e+21 	 1.219365e+08 	 7.853607e+38 	 5.134974e+38 	 1.376959e+22 	 2.170948e+09
1.20105907e+01 	 2.164081e-05 	 2.601178e+03 	 2.809650e+04 	 1.091212e+09 	 5.479269e+21 	 1.203728e+08 	 7.853540e+38 	 5.134956e+38 	 1.361777e+22 	 2.149069e+09
1.20107048e+01 	 2.189361e-05 	 2.597859e+03 	 2.777148e+04 	 1.088429e+09 	 5.416086e+21 	 1.188293e+08 	 7.853472e+38 	 5.134937e+38 	 1.346772e+22 	 2.127405e+09
1.20108189e+01 	 2.214937e-05 	 2.594546e+03 	 2.745021e+04 	 1.085655e+09 	 5.353676e+21 	 1.173057e+08 	 7.853405e+38 	 5.134919e+38 	 1.331944e+22 	 2.105956e+09
1.20109328e+01 	 2.240811e-05 	 2.591239e+03 	 2.713267e+04 	 1.082889e+09 	 5.292028e+21 	 1.158017e+08 	 7.853337e+38 	 5.134901e+38 	 1.317290e+22 	 2.084719e+09
1.20110467e+01 	 2.266988e-05 	 2.587938e+03 	 2.681879e+04 	 1.080132e+09 	 5.231133e+21 	 1.143171e+08 	 7.853270e+38 	 5.134882e+38 	 1.302807e+22 	 2.063692e+09
1.20111605e+01 	 2.293470e-05 	 2.584644e+03 	 2.650855e+04 	 1.077384e+09 	 5.170981e+21 	 1.128516e+08 	 7.853202e+38 	 5.134864e+38 	 1.288494e+22 	 2.042874e+09
1.20112743e+01 	 2.320262e-05 	 2.581356e+03 	 2.620190e+04 	 1.074645e+09 	 5.111564e+21 	 1.114050e+08 	 7.853134e+38 	 5.134845e+38 	 1.274349e+22 	 2.022261e+09
1.20113880e+01 	 2.347367e-05 	 2.578074e+03 	 2.589879e+04 	 1.071914e+09 	 5.052872e+21 	 1.099771e+08 	 7.853067e+38 	 5.134827e+38 	 1.260370e+22 	 2.001853e+09
1.20115016e+01 	 2.374789e-05 	 2.574799e+03 	 2.559919e+04 	 1.069192e+09 	 4.994895e+21 	 1.085675e+08 	 7.852999e+38 	 5.134808e+38 	 1.246554e+22 	 1.981646e+09
1.20116151e+01 	 2.402531e-05 	 2.571529e+03 	 2.530306e+04 	 1.066478e+09 	 4.937625e+21 	 1.071762e+08 	 7.852932e+38 	 5.134790e+38 	 1.232900e+22 	 1.961640e+09
1.20117286e+01 	 2.430597e-05 	 2.568266e+03 	 2.501035e+04 	 1.063773e+09 	 4.881053e+21 	 1.058027e+08 	 7.852864e+38 	 5.134771e+38 	 1.219406e+22 	 1.941832e+09
1.20118420e+01 	 2.458990e-05 	 2.565009e+03 	 2.472103e+04 	 1.061077e+09 	 4.825169e+21 	 1.044470e+08 	 7.852796e+38 	 5.134753e+38 	 1.206069e+22 	 1.922220e+09
1.20119553e+01 	 2.487716e-05 	 2.561758e+03 	 2.443505e+04 	 1.058389e+09 	 4.769966e+21 	 1.031087e+08 	 7.852728e+38 	 5.134734e+38 	 1.192889e+22 	 1.902802e+09
1.20120686e+01 	 2.516777e-05 	 2.558513e+03 	 2.415238e+04 	 1.055709e+09 	 4.715434e+21 	 1.017877e+08 	 7.852661e+38 	 5.134715e+38 	 1.179862e+22 	 1.883577e+09
1.20121818e+01 	 2.546178e-05 	 2.555274e+03 	 2.387299e+04 	 1.053038e+09 	 4.661565e+21 	 1.004836e+08 	 7.852593e+38 	 5.134697e+38 	 1.166986e+22 	 1.864542e+09
1.20122949e+01 	 2.575922e-05 	 2.552042e+03 	 2.359682e+04 	 1.050376e+09 	 4.608350e+21 	 9.919640e+07 	 7.852525e+38 	 5.134678e+38 	 1.154262e+22 	 1.845696e+09
1.20124080e+01 	 2.606014e-05 	 2.548816e+03 	 2.332385e+04 	 1.047722e+09 	 4.555782e+21 	 9.792576e+07 	 7.852457e+38 	 5.134659e+38 	 1.141685e+22 	 1.827037e+09
1.20125210e+01 	 2.636457e-05 	 2.545595e+03 	 2.305404e+04 	 1.045076e+09 	 4.503852e+21 	 9.667147e+07 	 7.852389e+38 	 5.134640e+38 	 1.129255e+22 	 1.808563e+09
1.20126340e+01 	 2.667256e-05 	 2.542381e+03 	 2.278735e+04 	 1.042439e+09 	 4.452552e+21 	 9.543334e+07 	 7.852322e+38 	 5.134621e+38 	 1.116970e+22 	 1.790273e+09
1.20127469e+01 	 2.698415e-05 	 2.539173e+03 	 2.252374e+04 	 1.039810e+09 	 4.401874e+21 	 9.421116e+07 	 7.852254e+38 	 5.134602e+38 	 1.104827e+22 	 1.772163e+09
1.20128597e+01 	 2.729938e-05 	 2.535972e+03 	 2.226318e+04 	 1.037189e+09 	 4.351810e+21 	 9.300471e+07 	 7.852186e+38 	 5.134584e+38 	 1.092826e+22 	 1.754234e+09
1.20129725e+01 	 2.761829e-05 	 2.532776e+03 	 2.200564e+04 	 1.034577e+09 	 4.302353e+21 	 9.181380e+07 	 7.852118e+38 	 5.134565e+38 	 1.080964e+22 	 1.736482e+09
1.20130852e+01 	 2.794093e-05 	 2.529586e+03 	 2.175108e+04 	 1.031972e+09 	 4.253495e+21 	 9.063822e+07 	 7.852050e+38 	 5.134546e+38 	 1.069241e+22 	 1.718907e+09
1.20131978e+01 	 2.826733e-05 	 2.526403e+03 	 2.149946e+04 	 1.029377e+09 	 4.205228e+21 	 8.947778e+07 	 7.851982e+38 	 5.134527e+38 	 1.057653e+22 	 1.701506e+09
1.20133104e+01 	 2.859755e-05 	 2.523225e+03 	 2.125075e+04 	 1.026789e+09 	 4.157546e+21 	 8.833227e+07 	 7.851913e+38 	 5.134508e+38 	 1.046200e+22 	 1.684278e+09
1.20134230e+01 	 2.893163e-05 	 2.520054e+03 	 2.100492e+04 	 1.024210e+09 	 4.110439e+21 	 8.720151e+07 	 7.851845e+38 	 5.134488e+38 	 1.034880e+22 	 1.667221e+09
1.20135354e+01 	 2.926961e-05 	 2.516889e+03 	 2.076193e+04 	 1.021638e+09 	 4.063902e+21 	 8.608531e+07 	 7.851777e+38 	 5.134469e+38 	 1.023690e+22 	 1.650334e+09
1.20136479e+01 	 2.961154e-05 	 2.513730e+03 	 2.052175e+04 	 1.019075e+09 	 4.017927e+21 	 8.498347e+07 	 7.851709e+38 	 5.134450e+38 	 1.012631e+22 	 1.633614e+09
1.20137602e+01 	 2.995746e-05 	 2.510576e+03 	 2.028436e+04 	 1.016520e+09 	 3.972507e+21 	 8.389582e+07 	 7.851641e+38 	 5.134431e+38 	 1.001700e+22 	 1.617061e+09
1.20138726e+01 	 3.030743e-05 	 2.507429e+03 	 2.004970e+04 	 1.013973e+09 	 3.927636e+21 	 8.282217e+07 	 7.851572e+38 	 5.134412e+38 	 9.908950e+21 	 1.600672e+09
1.20139848e+01 	 3.066148e-05 	 2.504288e+03 	 1.981777e+04 	 1.011435e+09 	 3.883306e+21 	 8.176233e+07 	 7.851504e+38 	 5.134392e+38 	 9.802153e+21 	 1.584446e+09
