r (km)        	 u (km/s)    	 cs (km/s)   	 rho (g/cm3) 	 T (K)       	 P (dyne/cm2) 	 phi         	 L (erg/s)   	 L* (erg/s)  	 E (erg)     	 tau        
1.20015404e+01 	 6.492284e-06 	 2.915501e+03 	 8.361221e+04 	 1.370867e+09 	 1.603803e+22 	 4.507881e+08 	 7.602113e+38 	 4.968578e+38 	 3.768524e+22 	 5.569254e+09
1.20016603e+01 	 6.568217e-06 	 2.911553e+03 	 8.264374e+04 	 1.367158e+09 	 1.584010e+22 	 4.449574e+08 	 7.602052e+38 	 4.968565e+38 	 3.723850e+22 	 5.514061e+09
1.20017800e+01 	 6.645037e-06 	 2.907612e+03 	 8.168648e+04 	 1.363459e+09 	 1.564471e+22 	 4.392025e+08 	 7.601991e+38 	 4.968551e+38 	 3.679729e+22 	 5.459405e+09
1.20018996e+01 	 6.722756e-06 	 2.903678e+03 	 8.074031e+04 	 1.359772e+09 	 1.545182e+22 	 4.335224e+08 	 7.601930e+38 	 4.968538e+38 	 3.636156e+22 	 5.405282e+09
1.20020191e+01 	 6.801385e-06 	 2.899751e+03 	 7.980510e+04 	 1.356096e+09 	 1.526140e+22 	 4.279161e+08 	 7.601870e+38 	 4.968524e+38 	 3.593123e+22 	 5.351685e+09
1.20021384e+01 	 6.880933e-06 	 2.895831e+03 	 7.888072e+04 	 1.352432e+09 	 1.507342e+22 	 4.223826e+08 	 7.601809e+38 	 4.968511e+38 	 3.550623e+22 	 5.298611e+09
1.20022575e+01 	 6.961412e-06 	 2.891918e+03 	 7.796705e+04 	 1.348779e+09 	 1.488785e+22 	 4.169210e+08 	 7.601748e+38 	 4.968497e+38 	 3.508649e+22 	 5.246053e+09
1.20023766e+01 	 7.042832e-06 	 2.888011e+03 	 7.706397e+04 	 1.345138e+09 	 1.470466e+22 	 4.115304e+08 	 7.601687e+38 	 4.968483e+38 	 3.467195e+22 	 5.194008e+09
1.20024954e+01 	 7.125205e-06 	 2.884111e+03 	 7.617134e+04 	 1.341508e+09 	 1.452381e+22 	 4.062098e+08 	 7.601626e+38 	 4.968470e+38 	 3.426254e+22 	 5.142471e+09
1.20026142e+01 	 7.208542e-06 	 2.880219e+03 	 7.528905e+04 	 1.337889e+09 	 1.434527e+22 	 4.009583e+08 	 7.601566e+38 	 4.968456e+38 	 3.385818e+22 	 5.091435e+09
1.20027328e+01 	 7.292853e-06 	 2.876333e+03 	 7.441698e+04 	 1.334281e+09 	 1.416901e+22 	 3.957751e+08 	 7.601505e+38 	 4.968443e+38 	 3.345882e+22 	 5.040897e+09
1.20028512e+01 	 7.378151e-06 	 2.872453e+03 	 7.355501e+04 	 1.330684e+09 	 1.399501e+22 	 3.906591e+08 	 7.601444e+38 	 4.968429e+38 	 3.306440e+22 	 4.990852e+09
1.20029695e+01 	 7.464446e-06 	 2.868581e+03 	 7.270303e+04 	 1.327099e+09 	 1.382323e+22 	 3.856096e+08 	 7.601384e+38 	 4.968415e+38 	 3.267485e+22 	 4.941295e+09
1.20030877e+01 	 7.551751e-06 	 2.864716e+03 	 7.186092e+04 	 1.323525e+09 	 1.365364e+22 	 3.806257e+08 	 7.601323e+38 	 4.968402e+38 	 3.229010e+22 	 4.892222e+09
1.20032057e+01 	 7.640078e-06 	 2.860857e+03 	 7.102856e+04 	 1.319962e+09 	 1.348622e+22 	 3.757064e+08 	 7.601263e+38 	 4.968388e+38 	 3.191010e+22 	 4.843627e+09
1.20033236e+01 	 7.729437e-06 	 2.857005e+03 	 7.020584e+04 	 1.316410e+09 	 1.332094e+22 	 3.708511e+08 	 7.601202e+38 	 4.968374e+38 	 3.153479e+22 	 4.795506e+09
1.20034414e+01 	 7.819842e-06 	 2.853160e+03 	 6.939265e+04 	 1.312868e+09 	 1.315776e+22 	 3.660588e+08 	 7.601142e+38 	 4.968361e+38 	 3.116410e+22 	 4.747855e+09
1.20035590e+01 	 7.911305e-06 	 2.849321e+03 	 6.858888e+04 	 1.309338e+09 	 1.299667e+22 	 3.613287e+08 	 7.601081e+38 	 4.968347e+38 	 3.079797e+22 	 4.700669e+09
1.20036765e+01 	 8.003837e-06 	 2.845489e+03 	 6.779442e+04 	 1.305819e+09 	 1.283762e+22 	 3.566600e+08 	 7.601021e+38 	 4.968333e+38 	 3.043635e+22 	 4.653944e+09
1.20037938e+01 	 8.097453e-06 	 2.841664e+03 	 6.700916e+04 	 1.302311e+09 	 1.268061e+22 	 3.520520e+08 	 7.600961e+38 	 4.968319e+38 	 3.007918e+22 	 4.607675e+09
1.20039110e+01 	 8.192163e-06 	 2.837846e+03 	 6.623299e+04 	 1.298813e+09 	 1.252559e+22 	 3.475037e+08 	 7.600900e+38 	 4.968306e+38 	 2.972641e+22 	 4.561858e+09
1.20040281e+01 	 8.287981e-06 	 2.834035e+03 	 6.546582e+04 	 1.295327e+09 	 1.237255e+22 	 3.430145e+08 	 7.600840e+38 	 4.968292e+38 	 2.937797e+22 	 4.516489e+09
1.20041451e+01 	 8.384920e-06 	 2.830230e+03 	 6.470753e+04 	 1.291851e+09 	 1.222145e+22 	 3.385835e+08 	 7.600780e+38 	 4.968278e+38 	 2.903381e+22 	 4.471562e+09
1.20042619e+01 	 8.482993e-06 	 2.826432e+03 	 6.395803e+04 	 1.288386e+09 	 1.207228e+22 	 3.342101e+08 	 7.600719e+38 	 4.968264e+38 	 2.869388e+22 	 4.427075e+09
1.20043786e+01 	 8.582214e-06 	 2.822640e+03 	 6.321721e+04 	 1.284932e+09 	 1.192501e+22 	 3.298934e+08 	 7.600659e+38 	 4.968251e+38 	 2.835812e+22 	 4.383022e+09
1.20044951e+01 	 8.682595e-06 	 2.818856e+03 	 6.248497e+04 	 1.281489e+09 	 1.177960e+22 	 3.256327e+08 	 7.600599e+38 	 4.968237e+38 	 2.802649e+22 	 4.339400e+09
1.20046116e+01 	 8.784151e-06 	 2.815078e+03 	 6.176121e+04 	 1.278056e+09 	 1.163605e+22 	 3.214273e+08 	 7.600539e+38 	 4.968223e+38 	 2.769892e+22 	 4.296205e+09
1.20047279e+01 	 8.886894e-06 	 2.811306e+03 	 6.104583e+04 	 1.274634e+09 	 1.149432e+22 	 3.172765e+08 	 7.600479e+38 	 4.968209e+38 	 2.737536e+22 	 4.253431e+09
1.20048440e+01 	 8.990840e-06 	 2.807542e+03 	 6.033874e+04 	 1.271222e+09 	 1.135439e+22 	 3.131795e+08 	 7.600419e+38 	 4.968196e+38 	 2.705578e+22 	 4.211076e+09
1.20049601e+01 	 9.096001e-06 	 2.803784e+03 	 5.963984e+04 	 1.267821e+09 	 1.121623e+22 	 3.091357e+08 	 7.600359e+38 	 4.968182e+38 	 2.674010e+22 	 4.169136e+09
1.20050760e+01 	 9.202393e-06 	 2.800032e+03 	 5.894904e+04 	 1.264431e+09 	 1.107983e+22 	 3.051443e+08 	 7.600299e+38 	 4.968168e+38 	 2.642829e+22 	 4.127605e+09
1.20051918e+01 	 9.310030e-06 	 2.796287e+03 	 5.826623e+04 	 1.261051e+09 	 1.094516e+22 	 3.012048e+08 	 7.600239e+38 	 4.968154e+38 	 2.612030e+22 	 4.086481e+09
1.20053074e+01 	 9.418925e-06 	 2.792549e+03 	 5.759134e+04 	 1.257682e+09 	 1.081219e+22 	 2.973163e+08 	 7.600179e+38 	 4.968140e+38 	 2.581607e+22 	 4.045759e+09
1.20054230e+01 	 9.529095e-06 	 2.788818e+03 	 5.692426e+04 	 1.254323e+09 	 1.068091e+22 	 2.934782e+08 	 7.600119e+38 	 4.968126e+38 	 2.551557e+22 	 4.005436e+09
1.20055384e+01 	 9.640553e-06 	 2.785093e+03 	 5.626491e+04 	 1.250975e+09 	 1.055129e+22 	 2.896899e+08 	 7.600059e+38 	 4.968112e+38 	 2.521873e+22 	 3.965508e+09
1.20056537e+01 	 9.753316e-06 	 2.781375e+03 	 5.561320e+04 	 1.247637e+09 	 1.042332e+22 	 2.859508e+08 	 7.599999e+38 	 4.968098e+38 	 2.492552e+22 	 3.925971e+09
1.20057689e+01 	 9.867397e-06 	 2.777663e+03 	 5.496904e+04 	 1.244309e+09 	 1.029696e+22 	 2.822601e+08 	 7.599939e+38 	 4.968085e+38 	 2.463589e+22 	 3.886820e+09
1.20058839e+01 	 9.982813e-06 	 2.773958e+03 	 5.433233e+04 	 1.240992e+09 	 1.017221e+22 	 2.786173e+08 	 7.599879e+38 	 4.968071e+38 	 2.434979e+22 	 3.848053e+09
1.20059988e+01 	 1.009958e-05 	 2.770260e+03 	 5.370301e+04 	 1.237685e+09 	 1.004903e+22 	 2.750218e+08 	 7.599819e+38 	 4.968057e+38 	 2.406719e+22 	 3.809666e+09
1.20061136e+01 	 1.021771e-05 	 2.766568e+03 	 5.308097e+04 	 1.234388e+09 	 9.927409e+21 	 2.714728e+08 	 7.599759e+38 	 4.968043e+38 	 2.378803e+22 	 3.771655e+09
1.20062283e+01 	 1.033723e-05 	 2.762882e+03 	 5.246613e+04 	 1.231102e+09 	 9.807325e+21 	 2.679699e+08 	 7.599699e+38 	 4.968029e+38 	 2.351226e+22 	 3.734017e+09
1.20063429e+01 	 1.045814e-05 	 2.759204e+03 	 5.185842e+04 	 1.227825e+09 	 9.688758e+21 	 2.645124e+08 	 7.599640e+38 	 4.968015e+38 	 2.323986e+22 	 3.696747e+09
1.20064573e+01 	 1.058047e-05 	 2.755531e+03 	 5.125775e+04 	 1.224559e+09 	 9.571689e+21 	 2.610997e+08 	 7.599580e+38 	 4.968001e+38 	 2.297078e+22 	 3.659843e+09
1.20065717e+01 	 1.070422e-05 	 2.751866e+03 	 5.066403e+04 	 1.221303e+09 	 9.456099e+21 	 2.577312e+08 	 7.599520e+38 	 4.967987e+38 	 2.270497e+22 	 3.623300e+09
1.20066859e+01 	 1.082943e-05 	 2.748207e+03 	 5.007719e+04 	 1.218058e+09 	 9.341966e+21 	 2.544064e+08 	 7.599460e+38 	 4.967973e+38 	 2.244239e+22 	 3.587116e+09
1.20068000e+01 	 1.095610e-05 	 2.744554e+03 	 4.949715e+04 	 1.214822e+09 	 9.229273e+21 	 2.511247e+08 	 7.599401e+38 	 4.967959e+38 	 2.218300e+22 	 3.551286e+09
1.20069140e+01 	 1.108425e-05 	 2.740908e+03 	 4.892383e+04 	 1.211596e+09 	 9.118001e+21 	 2.478855e+08 	 7.599341e+38 	 4.967945e+38 	 2.192677e+22 	 3.515808e+09
1.20070278e+01 	 1.121391e-05 	 2.737268e+03 	 4.835715e+04 	 1.208381e+09 	 9.008131e+21 	 2.446883e+08 	 7.599281e+38 	 4.967931e+38 	 2.167364e+22 	 3.480679e+09
1.20071416e+01 	 1.134507e-05 	 2.733635e+03 	 4.779703e+04 	 1.205175e+09 	 8.899646e+21 	 2.415325e+08 	 7.599222e+38 	 4.967917e+38 	 2.142359e+22 	 3.445893e+09
1.20072552e+01 	 1.147778e-05 	 2.730008e+03 	 4.724340e+04 	 1.201980e+09 	 8.792528e+21 	 2.384177e+08 	 7.599162e+38 	 4.967903e+38 	 2.117658e+22 	 3.411450e+09
1.20073687e+01 	 1.161203e-05 	 2.726388e+03 	 4.669618e+04 	 1.198794e+09 	 8.686758e+21 	 2.353432e+08 	 7.599102e+38 	 4.967888e+38 	 2.093256e+22 	 3.377344e+09
1.20074821e+01 	 1.174786e-05 	 2.722775e+03 	 4.615530e+04 	 1.195618e+09 	 8.582318e+21 	 2.323085e+08 	 7.599043e+38 	 4.967874e+38 	 2.069150e+22 	 3.343573e+09
1.20075954e+01 	 1.188528e-05 	 2.719168e+03 	 4.562069e+04 	 1.192452e+09 	 8.479193e+21 	 2.293131e+08 	 7.598983e+38 	 4.967860e+38 	 2.045336e+22 	 3.310134e+09
1.20077086e+01 	 1.202430e-05 	 2.715567e+03 	 4.509227e+04 	 1.189296e+09 	 8.377364e+21 	 2.263565e+08 	 7.598924e+38 	 4.967846e+38 	 2.021810e+22 	 3.277023e+09
1.20078217e+01 	 1.216495e-05 	 2.711973e+03 	 4.456997e+04 	 1.186150e+09 	 8.276814e+21 	 2.234383e+08 	 7.598864e+38 	 4.967832e+38 	 1.998569e+22 	 3.244237e+09
1.20079347e+01 	 1.230724e-05 	 2.708385e+03 	 4.405372e+04 	 1.183014e+09 	 8.177527e+21 	 2.205578e+08 	 7.598805e+38 	 4.967818e+38 	 1.975609e+22 	 3.211774e+09
1.20080475e+01 	 1.245120e-05 	 2.704803e+03 	 4.354345e+04 	 1.179887e+09 	 8.079488e+21 	 2.177146e+08 	 7.598745e+38 	 4.967804e+38 	 1.952927e+22 	 3.179629e+09
1.20081603e+01 	 1.259685e-05 	 2.701228e+03 	 4.303908e+04 	 1.176770e+09 	 7.982679e+21 	 2.149083e+08 	 7.598685e+38 	 4.967789e+38 	 1.930519e+22 	 3.147801e+09
1.20082729e+01 	 1.274419e-05 	 2.697660e+03 	 4.254057e+04 	 1.173663e+09 	 7.887085e+21 	 2.121383e+08 	 7.598626e+38 	 4.967775e+38 	 1.908382e+22 	 3.116285e+09
1.20083855e+01 	 1.289326e-05 	 2.694098e+03 	 4.204782e+04 	 1.170566e+09 	 7.792690e+21 	 2.094042e+08 	 7.598567e+38 	 4.967761e+38 	 1.886512e+22 	 3.085079e+09
1.20084979e+01 	 1.304408e-05 	 2.690542e+03 	 4.156078e+04 	 1.167478e+09 	 7.699478e+21 	 2.067055e+08 	 7.598507e+38 	 4.967747e+38 	 1.864905e+22 	 3.054180e+09
1.20086102e+01 	 1.319666e-05 	 2.686993e+03 	 4.107939e+04 	 1.164399e+09 	 7.607434e+21 	 2.040417e+08 	 7.598448e+38 	 4.967732e+38 	 1.843560e+22 	 3.023585e+09
1.20087225e+01 	 1.335102e-05 	 2.683450e+03 	 4.060357e+04 	 1.161331e+09 	 7.516544e+21 	 2.014125e+08 	 7.598388e+38 	 4.967718e+38 	 1.822472e+22 	 2.993290e+09
1.20088346e+01 	 1.350720e-05 	 2.679913e+03 	 4.013326e+04 	 1.158272e+09 	 7.426792e+21 	 1.988172e+08 	 7.598329e+38 	 4.967704e+38 	 1.801638e+22 	 2.963294e+09
1.20089466e+01 	 1.366519e-05 	 2.676383e+03 	 3.966840e+04 	 1.155222e+09 	 7.338163e+21 	 1.962556e+08 	 7.598269e+38 	 4.967690e+38 	 1.781056e+22 	 2.933593e+09
1.20090585e+01 	 1.382504e-05 	 2.672859e+03 	 3.920892e+04 	 1.152182e+09 	 7.250643e+21 	 1.937271e+08 	 7.598210e+38 	 4.967675e+38 	 1.760721e+22 	 2.904184e+09
1.20091703e+01 	 1.398676e-05 	 2.669341e+03 	 3.875477e+04 	 1.149152e+09 	 7.164218e+21 	 1.912314e+08 	 7.598151e+38 	 4.967661e+38 	 1.740631e+22 	 2.875065e+09
1.20092820e+01 	 1.415036e-05 	 2.665830e+03 	 3.830587e+04 	 1.146131e+09 	 7.078873e+21 	 1.887679e+08 	 7.598091e+38 	 4.967647e+38 	 1.720782e+22 	 2.846232e+09
1.20093936e+01 	 1.431589e-05 	 2.662326e+03 	 3.786218e+04 	 1.143119e+09 	 6.994595e+21 	 1.863364e+08 	 7.598032e+38 	 4.967632e+38 	 1.701172e+22 	 2.817683e+09
1.20095052e+01 	 1.448334e-05 	 2.658827e+03 	 3.742362e+04 	 1.140117e+09 	 6.911369e+21 	 1.839363e+08 	 7.597972e+38 	 4.967618e+38 	 1.681798e+22 	 2.789416e+09
1.20096166e+01 	 1.465276e-05 	 2.655335e+03 	 3.699015e+04 	 1.137124e+09 	 6.829183e+21 	 1.815673e+08 	 7.597913e+38 	 4.967603e+38 	 1.662657e+22 	 2.761426e+09
1.20097279e+01 	 1.482416e-05 	 2.651849e+03 	 3.656169e+04 	 1.134140e+09 	 6.748022e+21 	 1.792289e+08 	 7.597854e+38 	 4.967589e+38 	 1.643745e+22 	 2.733713e+09
1.20098391e+01 	 1.499757e-05 	 2.648370e+03 	 3.613820e+04 	 1.131166e+09 	 6.667874e+21 	 1.769208e+08 	 7.597794e+38 	 4.967574e+38 	 1.625061e+22 	 2.706273e+09
1.20099502e+01 	 1.517300e-05 	 2.644897e+03 	 3.571961e+04 	 1.128201e+09 	 6.588725e+21 	 1.746426e+08 	 7.597735e+38 	 4.967560e+38 	 1.606600e+22 	 2.679103e+09
1.20100612e+01 	 1.535049e-05 	 2.641430e+03 	 3.530588e+04 	 1.125245e+09 	 6.510563e+21 	 1.723938e+08 	 7.597676e+38 	 4.967546e+38 	 1.588361e+22 	 2.652200e+09
1.20101721e+01 	 1.553005e-05 	 2.637969e+03 	 3.489693e+04 	 1.122299e+09 	 6.433375e+21 	 1.701741e+08 	 7.597616e+38 	 4.967531e+38 	 1.570341e+22 	 2.625563e+09
1.20102830e+01 	 1.571171e-05 	 2.634515e+03 	 3.449272e+04 	 1.119362e+09 	 6.357148e+21 	 1.679832e+08 	 7.597557e+38 	 4.967517e+38 	 1.552536e+22 	 2.599189e+09
1.20103937e+01 	 1.589550e-05 	 2.631067e+03 	 3.409319e+04 	 1.116434e+09 	 6.281870e+21 	 1.658206e+08 	 7.597498e+38 	 4.967502e+38 	 1.534945e+22 	 2.573075e+09
1.20105044e+01 	 1.608144e-05 	 2.627625e+03 	 3.369829e+04 	 1.113515e+09 	 6.207529e+21 	 1.636860e+08 	 7.597438e+38 	 4.967487e+38 	 1.517564e+22 	 2.547218e+09
1.20106149e+01 	 1.626955e-05 	 2.624190e+03 	 3.330797e+04 	 1.110605e+09 	 6.134113e+21 	 1.615790e+08 	 7.597379e+38 	 4.967473e+38 	 1.500391e+22 	 2.521617e+09
1.20107254e+01 	 1.645987e-05 	 2.620760e+03 	 3.292217e+04 	 1.107704e+09 	 6.061609e+21 	 1.594992e+08 	 7.597320e+38 	 4.967458e+38 	 1.483423e+22 	 2.496268e+09
1.20108357e+01 	 1.665241e-05 	 2.617338e+03 	 3.254083e+04 	 1.104812e+09 	 5.990007e+21 	 1.574463e+08 	 7.597261e+38 	 4.967444e+38 	 1.466658e+22 	 2.471169e+09
1.20109460e+01 	 1.684720e-05 	 2.613921e+03 	 3.216391e+04 	 1.101930e+09 	 5.919294e+21 	 1.554200e+08 	 7.597201e+38 	 4.967429e+38 	 1.450094e+22 	 2.446318e+09
1.20110562e+01 	 1.704428e-05 	 2.610510e+03 	 3.179136e+04 	 1.099056e+09 	 5.849459e+21 	 1.534199e+08 	 7.597142e+38 	 4.967414e+38 	 1.433727e+22 	 2.421712e+09
1.20111663e+01 	 1.724365e-05 	 2.607106e+03 	 3.142312e+04 	 1.096192e+09 	 5.780490e+21 	 1.514457e+08 	 7.597083e+38 	 4.967400e+38 	 1.417555e+22 	 2.397349e+09
1.20112763e+01 	 1.744537e-05 	 2.603708e+03 	 3.105915e+04 	 1.093336e+09 	 5.712378e+21 	 1.494969e+08 	 7.597023e+38 	 4.967385e+38 	 1.401576e+22 	 2.373227e+09
1.20113862e+01 	 1.764944e-05 	 2.600316e+03 	 3.069939e+04 	 1.090489e+09 	 5.645111e+21 	 1.475734e+08 	 7.596964e+38 	 4.967370e+38 	 1.385788e+22 	 2.349343e+09
1.20114960e+01 	 1.785589e-05 	 2.596931e+03 	 3.034380e+04 	 1.087651e+09 	 5.578677e+21 	 1.456748e+08 	 7.596905e+38 	 4.967356e+38 	 1.370188e+22 	 2.325695e+09
1.20116057e+01 	 1.806477e-05 	 2.593551e+03 	 2.999233e+04 	 1.084823e+09 	 5.513066e+21 	 1.438007e+08 	 7.596846e+38 	 4.967341e+38 	 1.354774e+22 	 2.302281e+09
1.20117154e+01 	 1.827609e-05 	 2.590178e+03 	 2.964493e+04 	 1.082003e+09 	 5.448268e+21 	 1.419508e+08 	 7.596786e+38 	 4.967326e+38 	 1.339543e+22 	 2.279098e+09
1.20118249e+01 	 1.848988e-05 	 2.586811e+03 	 2.930156e+04 	 1.079191e+09 	 5.384272e+21 	 1.401248e+08 	 7.596727e+38 	 4.967311e+38 	 1.324493e+22 	 2.256144e+09
1.20119344e+01 	 1.870617e-05 	 2.583450e+03 	 2.896216e+04 	 1.076389e+09 	 5.321068e+21 	 1.383225e+08 	 7.596668e+38 	 4.967297e+38 	 1.309623e+22 	 2.233417e+09
1.20120438e+01 	 1.892499e-05 	 2.580095e+03 	 2.862669e+04 	 1.073595e+09 	 5.258645e+21 	 1.365434e+08 	 7.596609e+38 	 4.967282e+38 	 1.294929e+22 	 2.210915e+09
1.20121531e+01 	 1.914637e-05 	 2.576747e+03 	 2.829511e+04 	 1.070810e+09 	 5.196995e+21 	 1.347873e+08 	 7.596549e+38 	 4.967267e+38 	 1.280409e+22 	 2.188636e+09
1.20122624e+01 	 1.937034e-05 	 2.573404e+03 	 2.796737e+04 	 1.068034e+09 	 5.136106e+21 	 1.330540e+08 	 7.596490e+38 	 4.967252e+38 	 1.266062e+22 	 2.166577e+09
1.20123715e+01 	 1.959693e-05 	 2.570068e+03 	 2.764343e+04 	 1.065267e+09 	 5.075969e+21 	 1.313430e+08 	 7.596431e+38 	 4.967237e+38 	 1.251886e+22 	 2.144736e+09
1.20124806e+01 	 1.982617e-05 	 2.566738e+03 	 2.732324e+04 	 1.062508e+09 	 5.016575e+21 	 1.296541e+08 	 7.596371e+38 	 4.967222e+38 	 1.237877e+22 	 2.123111e+09
1.20125896e+01 	 2.005810e-05 	 2.563414e+03 	 2.700675e+04 	 1.059758e+09 	 4.957913e+21 	 1.279871e+08 	 7.596312e+38 	 4.967207e+38 	 1.224035e+22 	 2.101700e+09
1.20126985e+01 	 2.029274e-05 	 2.560096e+03 	 2.669393e+04 	 1.057016e+09 	 4.899976e+21 	 1.263416e+08 	 7.596253e+38 	 4.967193e+38 	 1.210357e+22 	 2.080501e+09
1.20128073e+01 	 2.053012e-05 	 2.556784e+03 	 2.638474e+04 	 1.054283e+09 	 4.842753e+21 	 1.247174e+08 	 7.596194e+38 	 4.967178e+38 	 1.196840e+22 	 2.059512e+09
1.20129160e+01 	 2.077028e-05 	 2.553479e+03 	 2.607913e+04 	 1.051559e+09 	 4.786235e+21 	 1.231141e+08 	 7.596134e+38 	 4.967163e+38 	 1.183484e+22 	 2.038731e+09
1.20130247e+01 	 2.101325e-05 	 2.550179e+03 	 2.577705e+04 	 1.048843e+09 	 4.730413e+21 	 1.215316e+08 	 7.596075e+38 	 4.967148e+38 	 1.170286e+22 	 2.018156e+09
1.20131333e+01 	 2.125906e-05 	 2.546886e+03 	 2.547848e+04 	 1.046136e+09 	 4.675279e+21 	 1.199695e+08 	 7.596016e+38 	 4.967133e+38 	 1.157244e+22 	 1.997784e+09
1.20132418e+01 	 2.150775e-05 	 2.543599e+03 	 2.518337e+04 	 1.043437e+09 	 4.620823e+21 	 1.184275e+08 	 7.595956e+38 	 4.967118e+38 	 1.144356e+22 	 1.977614e+09
1.20133502e+01 	 2.175935e-05 	 2.540317e+03 	 2.489167e+04 	 1.040747e+09 	 4.567038e+21 	 1.169055e+08 	 7.595897e+38 	 4.967102e+38 	 1.131621e+22 	 1.957645e+09
1.20134586e+01 	 2.201389e-05 	 2.537042e+03 	 2.460335e+04 	 1.038065e+09 	 4.513914e+21 	 1.154032e+08 	 7.595838e+38 	 4.967087e+38 	 1.119035e+22 	 1.937873e+09
1.20135669e+01 	 2.227141e-05 	 2.533773e+03 	 2.431837e+04 	 1.035391e+09 	 4.461443e+21 	 1.139203e+08 	 7.595778e+38 	 4.967072e+38 	 1.106599e+22 	 1.918297e+09
1.20136751e+01 	 2.253194e-05 	 2.530510e+03 	 2.403669e+04 	 1.032726e+09 	 4.409616e+21 	 1.124565e+08 	 7.595719e+38 	 4.967057e+38 	 1.094309e+22 	 1.898915e+09
1.20137832e+01 	 2.279552e-05 	 2.527253e+03 	 2.375828e+04 	 1.030070e+09 	 4.358426e+21 	 1.110116e+08 	 7.595660e+38 	 4.967042e+38 	 1.082164e+22 	 1.879725e+09
1.20138913e+01 	 2.306218e-05 	 2.524002e+03 	 2.348309e+04 	 1.027421e+09 	 4.307865e+21 	 1.095854e+08 	 7.595600e+38 	 4.967027e+38 	 1.070163e+22 	 1.860726e+09
1.20139993e+01 	 2.333196e-05 	 2.520758e+03 	 2.321108e+04 	 1.024781e+09 	 4.257924e+21 	 1.081775e+08 	 7.595541e+38 	 4.967012e+38 	 1.058302e+22 	 1.841915e+09
1.20141072e+01 	 2.360490e-05 	 2.517519e+03 	 2.294223e+04 	 1.022150e+09 	 4.208595e+21 	 1.067879e+08 	 7.595481e+38 	 4.966996e+38 	 1.046582e+22 	 1.823291e+09
1.20142150e+01 	 2.388104e-05 	 2.514286e+03 	 2.267649e+04 	 1.019526e+09 	 4.159871e+21 	 1.054162e+08 	 7.595422e+38 	 4.966981e+38 	 1.034999e+22 	 1.804851e+09
1.20143228e+01 	 2.416040e-05 	 2.511059e+03 	 2.241383e+04 	 1.016911e+09 	 4.111744e+21 	 1.040622e+08 	 7.595363e+38 	 4.966966e+38 	 1.023553e+22 	 1.786595e+09
1.20144305e+01 	 2.444303e-05 	 2.507839e+03 	 2.215421e+04 	 1.014304e+09 	 4.064207e+21 	 1.027257e+08 	 7.595303e+38 	 4.966950e+38 	 1.012241e+22 	 1.768520e+09
1.20145381e+01 	 2.472897e-05 	 2.504624e+03 	 2.189760e+04 	 1.011706e+09 	 4.017251e+21 	 1.014065e+08 	 7.595244e+38 	 4.966935e+38 	 1.001062e+22 	 1.750624e+09
1.20146457e+01 	 2.501825e-05 	 2.501415e+03 	 2.164396e+04 	 1.009115e+09 	 3.970870e+21 	 1.001042e+08 	 7.595184e+38 	 4.966920e+38 	 9.900146e+21 	 1.732906e+09
1.20147532e+01 	 2.531092e-05 	 2.498213e+03 	 2.139326e+04 	 1.006533e+09 	 3.925057e+21 	 9.881883e+07 	 7.595125e+38 	 4.966904e+38 	 9.790969e+21 	 1.715364e+09
1.20148606e+01 	 2.560701e-05 	 2.495016e+03 	 2.114547e+04 	 1.003958e+09 	 3.879803e+21 	 9.755001e+07 	 7.595065e+38 	 4.966889e+38 	 9.683073e+21 	 1.697996e+09
1.20149680e+01 	 2.590657e-05 	 2.491825e+03 	 2.090054e+04 	 1.001392e+09 	 3.835102e+21 	 9.629756e+07 	 7.595006e+38 	 4.966874e+38 	 9.576442e+21 	 1.680801e+09
