r (cm)        	 u (cm/s)    	 cs (cm/s)   	 rho (g/cm3) 	 T (K)       	 P (dyne/cm2) 	 phi         	 L (erg/s)   	 L* (erg/s)  	 E (erg)     	 tau        
1.19996041e+06 	 1.072722e+00 	 2.948619e+08 	 7.150542e+04 	 1.402188e+09 	 1.598241e+22 	 2.756917e+08 	 8.468568e+38 	 5.534402e+38 	 3.880894e+22 	 4.694765e+09
1.19997376e+06 	 1.085233e+00 	 2.944803e+08 	 7.067926e+04 	 1.398561e+09 	 1.579381e+22 	 2.721527e+08 	 8.468480e+38 	 5.534377e+38 	 3.837076e+22 	 4.648076e+09
1.19998710e+06 	 1.097891e+00 	 2.940994e+08 	 6.986265e+04 	 1.394946e+09 	 1.560756e+22 	 2.686594e+08 	 8.468392e+38 	 5.534352e+38 	 3.793784e+22 	 4.601844e+09
1.20000042e+06 	 1.110696e+00 	 2.937192e+08 	 6.905547e+04 	 1.391341e+09 	 1.542362e+22 	 2.652112e+08 	 8.468304e+38 	 5.534327e+38 	 3.751009e+22 	 4.556062e+09
1.20001374e+06 	 1.123650e+00 	 2.933396e+08 	 6.825761e+04 	 1.387748e+09 	 1.524197e+22 	 2.618075e+08 	 8.468216e+38 	 5.534302e+38 	 3.708747e+22 	 4.510727e+09
1.20002705e+06 	 1.136756e+00 	 2.929608e+08 	 6.746898e+04 	 1.384166e+09 	 1.506257e+22 	 2.584477e+08 	 8.468128e+38 	 5.534277e+38 	 3.666991e+22 	 4.465835e+09
1.20004034e+06 	 1.150014e+00 	 2.925827e+08 	 6.668945e+04 	 1.380596e+09 	 1.488541e+22 	 2.551313e+08 	 8.468040e+38 	 5.534252e+38 	 3.625735e+22 	 4.421382e+09
1.20005362e+06 	 1.163428e+00 	 2.922054e+08 	 6.591894e+04 	 1.377036e+09 	 1.471044e+22 	 2.518576e+08 	 8.467952e+38 	 5.534227e+38 	 3.584972e+22 	 4.377362e+09
1.20006689e+06 	 1.176997e+00 	 2.918287e+08 	 6.515732e+04 	 1.373488e+09 	 1.453764e+22 	 2.486263e+08 	 8.467864e+38 	 5.534202e+38 	 3.544697e+22 	 4.333773e+09
1.20008015e+06 	 1.190725e+00 	 2.914527e+08 	 6.440451e+04 	 1.369951e+09 	 1.436699e+22 	 2.454366e+08 	 8.467776e+38 	 5.534177e+38 	 3.504902e+22 	 4.290609e+09
1.20009340e+06 	 1.204613e+00 	 2.910774e+08 	 6.366039e+04 	 1.366426e+09 	 1.419845e+22 	 2.422880e+08 	 8.467688e+38 	 5.534151e+38 	 3.465582e+22 	 4.247868e+09
1.20010664e+06 	 1.218663e+00 	 2.907028e+08 	 6.292487e+04 	 1.362911e+09 	 1.403200e+22 	 2.391801e+08 	 8.467600e+38 	 5.534126e+38 	 3.426732e+22 	 4.205544e+09
1.20011987e+06 	 1.232877e+00 	 2.903289e+08 	 6.219785e+04 	 1.359407e+09 	 1.386762e+22 	 2.361123e+08 	 8.467512e+38 	 5.534101e+38 	 3.388345e+22 	 4.163634e+09
1.20013308e+06 	 1.247257e+00 	 2.899557e+08 	 6.147923e+04 	 1.355915e+09 	 1.370526e+22 	 2.330841e+08 	 8.467424e+38 	 5.534076e+38 	 3.350415e+22 	 4.122133e+09
1.20014629e+06 	 1.261805e+00 	 2.895832e+08 	 6.076891e+04 	 1.352433e+09 	 1.354492e+22 	 2.300949e+08 	 8.467335e+38 	 5.534050e+38 	 3.312938e+22 	 4.081039e+09
1.20015949e+06 	 1.276522e+00 	 2.892114e+08 	 6.006680e+04 	 1.348962e+09 	 1.338656e+22 	 2.271442e+08 	 8.467247e+38 	 5.534025e+38 	 3.275906e+22 	 4.040347e+09
1.20017267e+06 	 1.291411e+00 	 2.888402e+08 	 5.937280e+04 	 1.345502e+09 	 1.323015e+22 	 2.242316e+08 	 8.467159e+38 	 5.533999e+38 	 3.239315e+22 	 4.000052e+09
1.20018585e+06 	 1.306474e+00 	 2.884698e+08 	 5.868682e+04 	 1.342054e+09 	 1.307568e+22 	 2.213566e+08 	 8.467071e+38 	 5.533974e+38 	 3.203159e+22 	 3.960152e+09
1.20019901e+06 	 1.321712e+00 	 2.881001e+08 	 5.800876e+04 	 1.338616e+09 	 1.292312e+22 	 2.185187e+08 	 8.466983e+38 	 5.533949e+38 	 3.167433e+22 	 3.920642e+09
1.20021217e+06 	 1.337128e+00 	 2.877310e+08 	 5.733854e+04 	 1.335188e+09 	 1.277244e+22 	 2.157173e+08 	 8.466894e+38 	 5.533923e+38 	 3.132131e+22 	 3.881519e+09
1.20022531e+06 	 1.352724e+00 	 2.873627e+08 	 5.667606e+04 	 1.331772e+09 	 1.262362e+22 	 2.129520e+08 	 8.466806e+38 	 5.533897e+38 	 3.097248e+22 	 3.842780e+09
1.20023845e+06 	 1.368502e+00 	 2.869950e+08 	 5.602124e+04 	 1.328366e+09 	 1.247663e+22 	 2.102224e+08 	 8.466718e+38 	 5.533872e+38 	 3.062780e+22 	 3.804419e+09
1.20025157e+06 	 1.384464e+00 	 2.866280e+08 	 5.537398e+04 	 1.324971e+09 	 1.233146e+22 	 2.075280e+08 	 8.466630e+38 	 5.533846e+38 	 3.028720e+22 	 3.766434e+09
1.20026469e+06 	 1.400612e+00 	 2.862618e+08 	 5.473420e+04 	 1.321587e+09 	 1.218807e+22 	 2.048683e+08 	 8.466541e+38 	 5.533820e+38 	 2.995064e+22 	 3.728821e+09
1.20027779e+06 	 1.416948e+00 	 2.858962e+08 	 5.410181e+04 	 1.318213e+09 	 1.204645e+22 	 2.022429e+08 	 8.466453e+38 	 5.533795e+38 	 2.961806e+22 	 3.691577e+09
1.20029089e+06 	 1.433475e+00 	 2.855313e+08 	 5.347673e+04 	 1.314851e+09 	 1.190658e+22 	 1.996514e+08 	 8.466364e+38 	 5.533769e+38 	 2.928943e+22 	 3.654698e+09
1.20030397e+06 	 1.450195e+00 	 2.851670e+08 	 5.285887e+04 	 1.311498e+09 	 1.176842e+22 	 1.970932e+08 	 8.466276e+38 	 5.533743e+38 	 2.896468e+22 	 3.618180e+09
1.20031705e+06 	 1.467110e+00 	 2.848035e+08 	 5.224815e+04 	 1.308156e+09 	 1.163196e+22 	 1.945680e+08 	 8.466188e+38 	 5.533717e+38 	 2.864377e+22 	 3.582020e+09
1.20033012e+06 	 1.484222e+00 	 2.844406e+08 	 5.164448e+04 	 1.304825e+09 	 1.149718e+22 	 1.920754e+08 	 8.466099e+38 	 5.533691e+38 	 2.832666e+22 	 3.546215e+09
1.20034317e+06 	 1.501534e+00 	 2.840785e+08 	 5.104779e+04 	 1.301505e+09 	 1.136406e+22 	 1.896148e+08 	 8.466011e+38 	 5.533665e+38 	 2.801329e+22 	 3.510760e+09
1.20035622e+06 	 1.519048e+00 	 2.837170e+08 	 5.045800e+04 	 1.298194e+09 	 1.123257e+22 	 1.871860e+08 	 8.465922e+38 	 5.533639e+38 	 2.770363e+22 	 3.475654e+09
1.20036926e+06 	 1.536766e+00 	 2.833562e+08 	 4.987502e+04 	 1.294895e+09 	 1.110270e+22 	 1.847884e+08 	 8.465834e+38 	 5.533613e+38 	 2.739762e+22 	 3.440892e+09
1.20038229e+06 	 1.554691e+00 	 2.829960e+08 	 4.929877e+04 	 1.291605e+09 	 1.097442e+22 	 1.824218e+08 	 8.465745e+38 	 5.533587e+38 	 2.709522e+22 	 3.406471e+09
1.20039531e+06 	 1.572825e+00 	 2.826366e+08 	 4.872918e+04 	 1.288326e+09 	 1.084771e+22 	 1.800856e+08 	 8.465656e+38 	 5.533561e+38 	 2.679638e+22 	 3.372387e+09
1.20040833e+06 	 1.591170e+00 	 2.822778e+08 	 4.816617e+04 	 1.285058e+09 	 1.072255e+22 	 1.777795e+08 	 8.465568e+38 	 5.533535e+38 	 2.650106e+22 	 3.338639e+09
1.20042133e+06 	 1.609730e+00 	 2.819197e+08 	 4.760967e+04 	 1.281799e+09 	 1.059893e+22 	 1.755031e+08 	 8.465479e+38 	 5.533509e+38 	 2.620922e+22 	 3.305221e+09
1.20043433e+06 	 1.628506e+00 	 2.815623e+08 	 4.705960e+04 	 1.278551e+09 	 1.047682e+22 	 1.732561e+08 	 8.465390e+38 	 5.533483e+38 	 2.592082e+22 	 3.272131e+09
1.20044731e+06 	 1.647501e+00 	 2.812056e+08 	 4.651588e+04 	 1.275314e+09 	 1.035621e+22 	 1.710379e+08 	 8.465302e+38 	 5.533456e+38 	 2.563581e+22 	 3.239367e+09
1.20046029e+06 	 1.666717e+00 	 2.808495e+08 	 4.597845e+04 	 1.272086e+09 	 1.023708e+22 	 1.688484e+08 	 8.465213e+38 	 5.533430e+38 	 2.535416e+22 	 3.206924e+09
1.20047326e+06 	 1.686158e+00 	 2.804942e+08 	 4.544722e+04 	 1.268869e+09 	 1.011939e+22 	 1.666870e+08 	 8.465124e+38 	 5.533404e+38 	 2.507581e+22 	 3.174800e+09
1.20048622e+06 	 1.705826e+00 	 2.801395e+08 	 4.492213e+04 	 1.265662e+09 	 1.000315e+22 	 1.645534e+08 	 8.465035e+38 	 5.533377e+38 	 2.480073e+22 	 3.142992e+09
1.20049917e+06 	 1.725723e+00 	 2.797854e+08 	 4.440311e+04 	 1.262465e+09 	 9.888330e+21 	 1.624474e+08 	 8.464946e+38 	 5.533351e+38 	 2.452888e+22 	 3.111496e+09
1.20051211e+06 	 1.745852e+00 	 2.794321e+08 	 4.389009e+04 	 1.259278e+09 	 9.774910e+21 	 1.603684e+08 	 8.464857e+38 	 5.533324e+38 	 2.426022e+22 	 3.080310e+09
1.20052505e+06 	 1.766216e+00 	 2.790794e+08 	 4.338299e+04 	 1.256101e+09 	 9.662874e+21 	 1.583162e+08 	 8.464768e+38 	 5.533298e+38 	 2.399471e+22 	 3.049430e+09
1.20053798e+06 	 1.786817e+00 	 2.787274e+08 	 4.288175e+04 	 1.252935e+09 	 9.552204e+21 	 1.562904e+08 	 8.464679e+38 	 5.533271e+38 	 2.373231e+22 	 3.018854e+09
1.20055090e+06 	 1.807659e+00 	 2.783761e+08 	 4.238630e+04 	 1.249778e+09 	 9.442883e+21 	 1.542907e+08 	 8.464590e+38 	 5.533244e+38 	 2.347298e+22 	 2.988579e+09
1.20056381e+06 	 1.828744e+00 	 2.780254e+08 	 4.189658e+04 	 1.246631e+09 	 9.334895e+21 	 1.523167e+08 	 8.464501e+38 	 5.533218e+38 	 2.321669e+22 	 2.958601e+09
1.20057671e+06 	 1.850075e+00 	 2.776754e+08 	 4.141251e+04 	 1.243495e+09 	 9.228222e+21 	 1.503681e+08 	 8.464412e+38 	 5.533191e+38 	 2.296340e+22 	 2.928918e+09
1.20058961e+06 	 1.871654e+00 	 2.773261e+08 	 4.093404e+04 	 1.240368e+09 	 9.122847e+21 	 1.484446e+08 	 8.464323e+38 	 5.533164e+38 	 2.271307e+22 	 2.899528e+09
1.20060250e+06 	 1.893486e+00 	 2.769774e+08 	 4.046110e+04 	 1.237251e+09 	 9.018754e+21 	 1.465459e+08 	 8.464234e+38 	 5.533137e+38 	 2.246566e+22 	 2.870426e+09
1.20061538e+06 	 1.915572e+00 	 2.766295e+08 	 3.999362e+04 	 1.234144e+09 	 8.915927e+21 	 1.446716e+08 	 8.464144e+38 	 5.533110e+38 	 2.222115e+22 	 2.841612e+09
1.20062825e+06 	 1.937916e+00 	 2.762821e+08 	 3.953154e+04 	 1.231047e+09 	 8.814351e+21 	 1.428214e+08 	 8.464055e+38 	 5.533083e+38 	 2.197949e+22 	 2.813080e+09
1.20064112e+06 	 1.960520e+00 	 2.759355e+08 	 3.907480e+04 	 1.227960e+09 	 8.714008e+21 	 1.409950e+08 	 8.463966e+38 	 5.533056e+38 	 2.174064e+22 	 2.784830e+09
1.20065398e+06 	 1.983388e+00 	 2.755895e+08 	 3.862334e+04 	 1.224883e+09 	 8.614884e+21 	 1.391921e+08 	 8.463876e+38 	 5.533029e+38 	 2.150459e+22 	 2.756858e+09
1.20066683e+06 	 2.006523e+00 	 2.752442e+08 	 3.817709e+04 	 1.221815e+09 	 8.516963e+21 	 1.374123e+08 	 8.463787e+38 	 5.533002e+38 	 2.127128e+22 	 2.729161e+09
1.20067967e+06 	 2.029928e+00 	 2.748995e+08 	 3.773600e+04 	 1.218757e+09 	 8.420229e+21 	 1.356555e+08 	 8.463697e+38 	 5.532975e+38 	 2.104069e+22 	 2.701738e+09
1.20069251e+06 	 2.053606e+00 	 2.745555e+08 	 3.730001e+04 	 1.215709e+09 	 8.324668e+21 	 1.339213e+08 	 8.463608e+38 	 5.532948e+38 	 2.081278e+22 	 2.674585e+09
1.20070534e+06 	 2.077560e+00 	 2.742122e+08 	 3.686905e+04 	 1.212670e+09 	 8.230265e+21 	 1.322093e+08 	 8.463518e+38 	 5.532920e+38 	 2.058753e+22 	 2.647699e+09
1.20071817e+06 	 2.101793e+00 	 2.738696e+08 	 3.644307e+04 	 1.209641e+09 	 8.137007e+21 	 1.305194e+08 	 8.463428e+38 	 5.532893e+38 	 2.036490e+22 	 2.621078e+09
1.20073098e+06 	 2.126309e+00 	 2.735276e+08 	 3.602202e+04 	 1.206622e+09 	 8.044877e+21 	 1.288513e+08 	 8.463339e+38 	 5.532866e+38 	 2.014485e+22 	 2.594720e+09
1.20074379e+06 	 2.151112e+00 	 2.731862e+08 	 3.560583e+04 	 1.203612e+09 	 7.953861e+21 	 1.272045e+08 	 8.463249e+38 	 5.532838e+38 	 1.992736e+22 	 2.568621e+09
1.20075660e+06 	 2.176203e+00 	 2.728455e+08 	 3.519444e+04 	 1.200612e+09 	 7.863946e+21 	 1.255789e+08 	 8.463159e+38 	 5.532811e+38 	 1.971239e+22 	 2.542781e+09
1.20076939e+06 	 2.201587e+00 	 2.725055e+08 	 3.478781e+04 	 1.197622e+09 	 7.775117e+21 	 1.239743e+08 	 8.463069e+38 	 5.532783e+38 	 1.949991e+22 	 2.517195e+09
1.20078218e+06 	 2.227268e+00 	 2.721661e+08 	 3.438588e+04 	 1.194641e+09 	 7.687362e+21 	 1.223902e+08 	 8.462979e+38 	 5.532756e+38 	 1.928990e+22 	 2.491861e+09
1.20079497e+06 	 2.253247e+00 	 2.718274e+08 	 3.398859e+04 	 1.191669e+09 	 7.600667e+21 	 1.208266e+08 	 8.462889e+38 	 5.532728e+38 	 1.908233e+22 	 2.466777e+09
1.20080775e+06 	 2.279530e+00 	 2.714894e+08 	 3.359590e+04 	 1.188707e+09 	 7.515019e+21 	 1.192830e+08 	 8.462799e+38 	 5.532700e+38 	 1.887716e+22 	 2.441941e+09
1.20082052e+06 	 2.306120e+00 	 2.711520e+08 	 3.320774e+04 	 1.185755e+09 	 7.430404e+21 	 1.177592e+08 	 8.462709e+38 	 5.532673e+38 	 1.867436e+22 	 2.417351e+09
1.20083328e+06 	 2.333020e+00 	 2.708153e+08 	 3.282406e+04 	 1.182811e+09 	 7.346809e+21 	 1.162551e+08 	 8.462619e+38 	 5.532645e+38 	 1.847391e+22 	 2.393003e+09
1.20084604e+06 	 2.360233e+00 	 2.704792e+08 	 3.244482e+04 	 1.179877e+09 	 7.264221e+21 	 1.147703e+08 	 8.462528e+38 	 5.532617e+38 	 1.827578e+22 	 2.368895e+09
1.20085879e+06 	 2.387764e+00 	 2.701438e+08 	 3.206996e+04 	 1.176953e+09 	 7.182628e+21 	 1.133045e+08 	 8.462438e+38 	 5.532589e+38 	 1.807993e+22 	 2.345026e+09
1.20087154e+06 	 2.415616e+00 	 2.698090e+08 	 3.169943e+04 	 1.174038e+09 	 7.102017e+21 	 1.118576e+08 	 8.462348e+38 	 5.532561e+38 	 1.788635e+22 	 2.321392e+09
1.20088428e+06 	 2.443793e+00 	 2.694749e+08 	 3.133318e+04 	 1.171132e+09 	 7.022377e+21 	 1.104293e+08 	 8.462257e+38 	 5.532533e+38 	 1.769501e+22 	 2.297992e+09
1.20089702e+06 	 2.472299e+00 	 2.691415e+08 	 3.097116e+04 	 1.168235e+09 	 6.943693e+21 	 1.090193e+08 	 8.462167e+38 	 5.532505e+38 	 1.750587e+22 	 2.274823e+09
1.20090975e+06 	 2.501137e+00 	 2.688087e+08 	 3.061333e+04 	 1.165348e+09 	 6.865955e+21 	 1.076275e+08 	 8.462076e+38 	 5.532477e+38 	 1.731891e+22 	 2.251884e+09
1.20092247e+06 	 2.530312e+00 	 2.684765e+08 	 3.025963e+04 	 1.162470e+09 	 6.789152e+21 	 1.062535e+08 	 8.461985e+38 	 5.532448e+38 	 1.713411e+22 	 2.229171e+09
1.20093519e+06 	 2.559827e+00 	 2.681450e+08 	 2.991001e+04 	 1.159601e+09 	 6.713270e+21 	 1.048971e+08 	 8.461895e+38 	 5.532420e+38 	 1.695143e+22 	 2.206682e+09
1.20094790e+06 	 2.589687e+00 	 2.678142e+08 	 2.956444e+04 	 1.156741e+09 	 6.638299e+21 	 1.035582e+08 	 8.461804e+38 	 5.532392e+38 	 1.677086e+22 	 2.184417e+09
1.20096061e+06 	 2.619894e+00 	 2.674840e+08 	 2.922286e+04 	 1.153891e+09 	 6.564227e+21 	 1.022365e+08 	 8.461713e+38 	 5.532363e+38 	 1.659236e+22 	 2.162371e+09
1.20097331e+06 	 2.650454e+00 	 2.671545e+08 	 2.888522e+04 	 1.151049e+09 	 6.491043e+21 	 1.009318e+08 	 8.461622e+38 	 5.532335e+38 	 1.641592e+22 	 2.140543e+09
1.20098601e+06 	 2.681371e+00 	 2.668256e+08 	 2.855149e+04 	 1.148217e+09 	 6.418735e+21 	 9.964378e+07 	 8.461531e+38 	 5.532306e+38 	 1.624150e+22 	 2.118932e+09
1.20099870e+06 	 2.712648e+00 	 2.664973e+08 	 2.822161e+04 	 1.145394e+09 	 6.347294e+21 	 9.837233e+07 	 8.461440e+38 	 5.532278e+38 	 1.606908e+22 	 2.097534e+09
1.20101139e+06 	 2.744290e+00 	 2.661697e+08 	 2.789554e+04 	 1.142579e+09 	 6.276707e+21 	 9.711720e+07 	 8.461349e+38 	 5.532249e+38 	 1.589865e+22 	 2.076349e+09
1.20102407e+06 	 2.776301e+00 	 2.658427e+08 	 2.757324e+04 	 1.139774e+09 	 6.206965e+21 	 9.587819e+07 	 8.461258e+38 	 5.532220e+38 	 1.573017e+22 	 2.055373e+09
1.20103675e+06 	 2.808686e+00 	 2.655164e+08 	 2.725467e+04 	 1.136978e+09 	 6.138057e+21 	 9.465509e+07 	 8.461166e+38 	 5.532191e+38 	 1.556362e+22 	 2.034605e+09
1.20104943e+06 	 2.841448e+00 	 2.651908e+08 	 2.693977e+04 	 1.134190e+09 	 6.069971e+21 	 9.344768e+07 	 8.461075e+38 	 5.532163e+38 	 1.539898e+22 	 2.014042e+09
1.20106209e+06 	 2.874593e+00 	 2.648658e+08 	 2.662851e+04 	 1.131412e+09 	 6.002699e+21 	 9.225577e+07 	 8.460983e+38 	 5.532134e+38 	 1.523622e+22 	 1.993683e+09
1.20107476e+06 	 2.908124e+00 	 2.645414e+08 	 2.632085e+04 	 1.128642e+09 	 5.936229e+21 	 9.107916e+07 	 8.460892e+38 	 5.532105e+38 	 1.507533e+22 	 1.973526e+09
1.20108742e+06 	 2.942047e+00 	 2.642176e+08 	 2.601675e+04 	 1.125882e+09 	 5.870553e+21 	 8.991765e+07 	 8.460800e+38 	 5.532076e+38 	 1.491627e+22 	 1.953569e+09
1.20110007e+06 	 2.976365e+00 	 2.638946e+08 	 2.571616e+04 	 1.123130e+09 	 5.805660e+21 	 8.877105e+07 	 8.460708e+38 	 5.532046e+38 	 1.475904e+22 	 1.933810e+09
1.20111272e+06 	 3.011083e+00 	 2.635721e+08 	 2.541904e+04 	 1.120387e+09 	 5.741540e+21 	 8.763916e+07 	 8.460617e+38 	 5.532017e+38 	 1.460360e+22 	 1.914246e+09
1.20112537e+06 	 3.046207e+00 	 2.632503e+08 	 2.512535e+04 	 1.117653e+09 	 5.678183e+21 	 8.652179e+07 	 8.460525e+38 	 5.531988e+38 	 1.444993e+22 	 1.894877e+09
1.20113801e+06 	 3.081740e+00 	 2.629291e+08 	 2.483506e+04 	 1.114927e+09 	 5.615580e+21 	 8.541876e+07 	 8.460433e+38 	 5.531959e+38 	 1.429802e+22 	 1.875700e+09
1.20115065e+06 	 3.117688e+00 	 2.626086e+08 	 2.454812e+04 	 1.112211e+09 	 5.553722e+21 	 8.432989e+07 	 8.460341e+38 	 5.531929e+38 	 1.414784e+22 	 1.856713e+09
1.20116329e+06 	 3.154055e+00 	 2.622887e+08 	 2.426449e+04 	 1.109503e+09 	 5.492600e+21 	 8.325498e+07 	 8.460248e+38 	 5.531900e+38 	 1.399937e+22 	 1.837914e+09
1.20117592e+06 	 3.190846e+00 	 2.619695e+08 	 2.398415e+04 	 1.106804e+09 	 5.432204e+21 	 8.219386e+07 	 8.460156e+38 	 5.531870e+38 	 1.385260e+22 	 1.819302e+09
1.20118854e+06 	 3.228067e+00 	 2.616509e+08 	 2.370704e+04 	 1.104113e+09 	 5.372526e+21 	 8.114635e+07 	 8.460064e+38 	 5.531841e+38 	 1.370749e+22 	 1.800874e+09
1.20120117e+06 	 3.265721e+00 	 2.613329e+08 	 2.343313e+04 	 1.101431e+09 	 5.313556e+21 	 8.011228e+07 	 8.459971e+38 	 5.531811e+38 	 1.356404e+22 	 1.782630e+09
1.20121379e+06 	 3.303815e+00 	 2.610156e+08 	 2.316239e+04 	 1.098758e+09 	 5.255286e+21 	 7.909147e+07 	 8.459879e+38 	 5.531781e+38 	 1.342221e+22 	 1.764567e+09
1.20122640e+06 	 3.342353e+00 	 2.606989e+08 	 2.289478e+04 	 1.096093e+09 	 5.197706e+21 	 7.808375e+07 	 8.459786e+38 	 5.531751e+38 	 1.328200e+22 	 1.746683e+09
1.20123901e+06 	 3.381341e+00 	 2.603829e+08 	 2.263025e+04 	 1.093437e+09 	 5.140809e+21 	 7.708895e+07 	 8.459693e+38 	 5.531721e+38 	 1.314338e+22 	 1.728977e+09
1.20125162e+06 	 3.420784e+00 	 2.600674e+08 	 2.236879e+04 	 1.090790e+09 	 5.084586e+21 	 7.610691e+07 	 8.459601e+38 	 5.531692e+38 	 1.300634e+22 	 1.711447e+09
1.20126423e+06 	 3.460687e+00 	 2.597527e+08 	 2.211034e+04 	 1.088151e+09 	 5.029028e+21 	 7.513746e+07 	 8.459508e+38 	 5.531661e+38 	 1.287085e+22 	 1.694091e+09
1.20127683e+06 	 3.501055e+00 	 2.594385e+08 	 2.185489e+04 	 1.085520e+09 	 4.974128e+21 	 7.418044e+07 	 8.459415e+38 	 5.531631e+38 	 1.273689e+22 	 1.676907e+09
1.20128943e+06 	 3.541894e+00 	 2.591250e+08 	 2.160238e+04 	 1.082898e+09 	 4.919876e+21 	 7.323569e+07 	 8.459321e+38 	 5.531601e+38 	 1.260445e+22 	 1.659894e+09
1.20130203e+06 	 3.583210e+00 	 2.588121e+08 	 2.135279e+04 	 1.080285e+09 	 4.866266e+21 	 7.230305e+07 	 8.459228e+38 	 5.531571e+38 	 1.247351e+22 	 1.643051e+09
1.20131462e+06 	 3.625007e+00 	 2.584999e+08 	 2.110608e+04 	 1.077680e+09 	 4.813289e+21 	 7.138236e+07 	 8.459135e+38 	 5.531541e+38 	 1.234406e+22 	 1.626375e+09
1.20132721e+06 	 3.667293e+00 	 2.581883e+08 	 2.086223e+04 	 1.075083e+09 	 4.760937e+21 	 7.047348e+07 	 8.459041e+38 	 5.531510e+38 	 1.221606e+22 	 1.609865e+09
1.20133980e+06 	 3.710071e+00 	 2.578773e+08 	 2.062119e+04 	 1.072495e+09 	 4.709202e+21 	 6.957624e+07 	 8.458948e+38 	 5.531480e+38 	 1.208952e+22 	 1.593519e+09
1.20135238e+06 	 3.753348e+00 	 2.575669e+08 	 2.038294e+04 	 1.069915e+09 	 4.658078e+21 	 6.869050e+07 	 8.458854e+38 	 5.531449e+38 	 1.196440e+22 	 1.577336e+09
1.20136497e+06 	 3.797131e+00 	 2.572572e+08 	 2.014744e+04 	 1.067343e+09 	 4.607555e+21 	 6.781611e+07 	 8.458761e+38 	 5.531418e+38 	 1.184070e+22 	 1.561314e+09
1.20137755e+06 	 3.841424e+00 	 2.569481e+08 	 1.991466e+04 	 1.064780e+09 	 4.557629e+21 	 6.695293e+07 	 8.458667e+38 	 5.531388e+38 	 1.171839e+22 	 1.545451e+09
1.20139012e+06 	 3.886233e+00 	 2.566397e+08 	 1.968457e+04 	 1.062225e+09 	 4.508289e+21 	 6.610080e+07 	 8.458573e+38 	 5.531357e+38 	 1.159746e+22 	 1.529747e+09
1.20140270e+06 	 3.931566e+00 	 2.563318e+08 	 1.945713e+04 	 1.059679e+09 	 4.459530e+21 	 6.525960e+07 	 8.458479e+38 	 5.531326e+38 	 1.147789e+22 	 1.514198e+09
1.20141527e+06 	 3.977427e+00 	 2.560246e+08 	 1.923233e+04 	 1.057140e+09 	 4.411343e+21 	 6.442916e+07 	 8.458384e+38 	 5.531295e+38 	 1.135967e+22 	 1.498805e+09
1.20142784e+06 	 4.023823e+00 	 2.557180e+08 	 1.901012e+04 	 1.054610e+09 	 4.363723e+21 	 6.360937e+07 	 8.458290e+38 	 5.531264e+38 	 1.124278e+22 	 1.483565e+09
1.20144041e+06 	 4.070761e+00 	 2.554121e+08 	 1.879048e+04 	 1.052088e+09 	 4.316662e+21 	 6.280008e+07 	 8.458196e+38 	 5.531233e+38 	 1.112721e+22 	 1.468477e+09
1.20145298e+06 	 4.118246e+00 	 2.551068e+08 	 1.857338e+04 	 1.049574e+09 	 4.270154e+21 	 6.200115e+07 	 8.458101e+38 	 5.531202e+38 	 1.101293e+22 	 1.453539e+09
1.20146554e+06 	 4.166285e+00 	 2.548021e+08 	 1.835879e+04 	 1.047068e+09 	 4.224191e+21 	 6.121246e+07 	 8.458006e+38 	 5.531170e+38 	 1.089994e+22 	 1.438750e+09
1.20147811e+06 	 4.214884e+00 	 2.544980e+08 	 1.814668e+04 	 1.044571e+09 	 4.178767e+21 	 6.043386e+07 	 8.457912e+38 	 5.531139e+38 	 1.078821e+22 	 1.424109e+09
1.20149067e+06 	 4.264050e+00 	 2.541945e+08 	 1.793701e+04 	 1.042081e+09 	 4.133874e+21 	 5.966524e+07 	 8.457817e+38 	 5.531108e+38 	 1.067774e+22 	 1.409614e+09
