r (km)        	 u (km/s)    	 cs (km/s)   	 rho (g/cm3) 	 T (K)       	 P (dyne/cm2) 	 phi         	 L (erg/s)   	 L* (erg/s)  	 E (erg)     	 tau        
1.20004042e+01 	 1.572586e-05 	 2.974017e+03 	 6.139682e+04 	 1.426448e+09 	 1.588317e+22 	 1.895616e+08 	 9.230767e+38 	 6.032729e+38 	 3.965434e+22 	 3.987816e+09
1.20005521e+01 	 1.590932e-05 	 2.970332e+03 	 6.068712e+04 	 1.422915e+09 	 1.570378e+22 	 1.871390e+08 	 9.230645e+38 	 6.032689e+38 	 3.922707e+22 	 3.947895e+09
1.20006999e+01 	 1.609493e-05 	 2.966654e+03 	 5.998561e+04 	 1.419394e+09 	 1.552655e+22 	 1.847476e+08 	 9.230523e+38 	 6.032649e+38 	 3.880478e+22 	 3.908365e+09
1.20008477e+01 	 1.628270e-05 	 2.962983e+03 	 5.929222e+04 	 1.415883e+09 	 1.535147e+22 	 1.823869e+08 	 9.230401e+38 	 6.032608e+38 	 3.838739e+22 	 3.869223e+09
1.20009954e+01 	 1.647265e-05 	 2.959320e+03 	 5.860684e+04 	 1.412384e+09 	 1.517851e+22 	 1.800566e+08 	 9.230279e+38 	 6.032568e+38 	 3.797485e+22 	 3.830465e+09
1.20011430e+01 	 1.666483e-05 	 2.955663e+03 	 5.792939e+04 	 1.408896e+09 	 1.500764e+22 	 1.777563e+08 	 9.230157e+38 	 6.032527e+38 	 3.756711e+22 	 3.792088e+09
1.20012905e+01 	 1.685925e-05 	 2.952014e+03 	 5.725976e+04 	 1.405420e+09 	 1.483884e+22 	 1.754855e+08 	 9.230035e+38 	 6.032487e+38 	 3.716410e+22 	 3.754088e+09
1.20014379e+01 	 1.705593e-05 	 2.948373e+03 	 5.659788e+04 	 1.401954e+09 	 1.467207e+22 	 1.732440e+08 	 9.229912e+38 	 6.032446e+38 	 3.676576e+22 	 3.716461e+09
1.20015853e+01 	 1.725491e-05 	 2.944738e+03 	 5.594364e+04 	 1.398500e+09 	 1.450732e+22 	 1.710312e+08 	 9.229790e+38 	 6.032405e+38 	 3.637205e+22 	 3.679203e+09
1.20017326e+01 	 1.745622e-05 	 2.941110e+03 	 5.529697e+04 	 1.395056e+09 	 1.434455e+22 	 1.688469e+08 	 9.229667e+38 	 6.032364e+38 	 3.598289e+22 	 3.642312e+09
1.20018798e+01 	 1.765987e-05 	 2.937490e+03 	 5.465778e+04 	 1.391624e+09 	 1.418375e+22 	 1.666907e+08 	 9.229545e+38 	 6.032323e+38 	 3.559824e+22 	 3.605783e+09
1.20020270e+01 	 1.786589e-05 	 2.933877e+03 	 5.402597e+04 	 1.388203e+09 	 1.402488e+22 	 1.645623e+08 	 9.229422e+38 	 6.032282e+38 	 3.521805e+22 	 3.569613e+09
1.20021741e+01 	 1.807433e-05 	 2.930271e+03 	 5.340147e+04 	 1.384793e+09 	 1.386793e+22 	 1.624611e+08 	 9.229299e+38 	 6.032241e+38 	 3.484225e+22 	 3.533799e+09
1.20023212e+01 	 1.828519e-05 	 2.926672e+03 	 5.278418e+04 	 1.381393e+09 	 1.371287e+22 	 1.603870e+08 	 9.229176e+38 	 6.032200e+38 	 3.447079e+22 	 3.498337e+09
1.20024681e+01 	 1.849851e-05 	 2.923081e+03 	 5.217403e+04 	 1.378005e+09 	 1.355967e+22 	 1.583396e+08 	 9.229053e+38 	 6.032158e+38 	 3.410363e+22 	 3.463224e+09
1.20026150e+01 	 1.871432e-05 	 2.919496e+03 	 5.157094e+04 	 1.374627e+09 	 1.340831e+22 	 1.563184e+08 	 9.228929e+38 	 6.032117e+38 	 3.374070e+22 	 3.428456e+09
1.20027619e+01 	 1.893265e-05 	 2.915919e+03 	 5.097481e+04 	 1.371260e+09 	 1.325878e+22 	 1.543232e+08 	 9.228806e+38 	 6.032075e+38 	 3.338196e+22 	 3.394030e+09
1.20029086e+01 	 1.915353e-05 	 2.912349e+03 	 5.038558e+04 	 1.367905e+09 	 1.311104e+22 	 1.523537e+08 	 9.228682e+38 	 6.032034e+38 	 3.302736e+22 	 3.359943e+09
1.20030554e+01 	 1.937699e-05 	 2.908785e+03 	 4.980315e+04 	 1.364560e+09 	 1.296507e+22 	 1.504094e+08 	 9.228559e+38 	 6.031992e+38 	 3.267684e+22 	 3.326192e+09
1.20032020e+01 	 1.960305e-05 	 2.905229e+03 	 4.922746e+04 	 1.361225e+09 	 1.282086e+22 	 1.484902e+08 	 9.228435e+38 	 6.031950e+38 	 3.233036e+22 	 3.292772e+09
1.20033486e+01 	 1.983175e-05 	 2.901681e+03 	 4.865843e+04 	 1.357902e+09 	 1.267837e+22 	 1.465956e+08 	 9.228311e+38 	 6.031908e+38 	 3.198787e+22 	 3.259682e+09
1.20034951e+01 	 2.006312e-05 	 2.898139e+03 	 4.809597e+04 	 1.354589e+09 	 1.253759e+22 	 1.447253e+08 	 9.228187e+38 	 6.031866e+38 	 3.164932e+22 	 3.226918e+09
1.20036416e+01 	 2.029718e-05 	 2.894604e+03 	 4.754001e+04 	 1.351286e+09 	 1.239850e+22 	 1.428791e+08 	 9.228063e+38 	 6.031824e+38 	 3.131466e+22 	 3.194476e+09
1.20037880e+01 	 2.053398e-05 	 2.891076e+03 	 4.699048e+04 	 1.347995e+09 	 1.226107e+22 	 1.410565e+08 	 9.227939e+38 	 6.031782e+38 	 3.098384e+22 	 3.162354e+09
1.20039344e+01 	 2.077354e-05 	 2.887556e+03 	 4.644730e+04 	 1.344714e+09 	 1.212529e+22 	 1.392574e+08 	 9.227815e+38 	 6.031740e+38 	 3.065682e+22 	 3.130548e+09
1.20040807e+01 	 2.101590e-05 	 2.884042e+03 	 4.591040e+04 	 1.341443e+09 	 1.199113e+22 	 1.374814e+08 	 9.227690e+38 	 6.031697e+38 	 3.033356e+22 	 3.099056e+09
1.20042270e+01 	 2.126108e-05 	 2.880536e+03 	 4.537971e+04 	 1.338184e+09 	 1.185858e+22 	 1.357282e+08 	 9.227566e+38 	 6.031655e+38 	 3.001400e+22 	 3.067874e+09
1.20043732e+01 	 2.150913e-05 	 2.877037e+03 	 4.485515e+04 	 1.334934e+09 	 1.172760e+22 	 1.339975e+08 	 9.227441e+38 	 6.031612e+38 	 2.969811e+22 	 3.037000e+09
1.20045193e+01 	 2.176007e-05 	 2.873544e+03 	 4.433665e+04 	 1.331695e+09 	 1.159820e+22 	 1.322890e+08 	 9.227316e+38 	 6.031569e+38 	 2.938583e+22 	 3.006430e+09
1.20046654e+01 	 2.201393e-05 	 2.870059e+03 	 4.382415e+04 	 1.328467e+09 	 1.147033e+22 	 1.306024e+08 	 9.227191e+38 	 6.031527e+38 	 2.907712e+22 	 2.976162e+09
1.20048115e+01 	 2.227076e-05 	 2.866581e+03 	 4.331757e+04 	 1.325249e+09 	 1.134399e+22 	 1.289375e+08 	 9.227066e+38 	 6.031484e+38 	 2.877194e+22 	 2.946192e+09
1.20049575e+01 	 2.253059e-05 	 2.863109e+03 	 4.281685e+04 	 1.322041e+09 	 1.121916e+22 	 1.272940e+08 	 9.226941e+38 	 6.031441e+38 	 2.847026e+22 	 2.916518e+09
1.20051034e+01 	 2.279344e-05 	 2.859645e+03 	 4.232192e+04 	 1.318844e+09 	 1.109581e+22 	 1.256715e+08 	 9.226815e+38 	 6.031397e+38 	 2.817202e+22 	 2.887137e+09
1.20052494e+01 	 2.305937e-05 	 2.856188e+03 	 4.183271e+04 	 1.315657e+09 	 1.097393e+22 	 1.240699e+08 	 9.226690e+38 	 6.031354e+38 	 2.787719e+22 	 2.858046e+09
1.20053952e+01 	 2.332839e-05 	 2.852738e+03 	 4.134915e+04 	 1.312480e+09 	 1.085350e+22 	 1.224888e+08 	 9.226564e+38 	 6.031311e+38 	 2.758572e+22 	 2.829242e+09
1.20055410e+01 	 2.360056e-05 	 2.849295e+03 	 4.087118e+04 	 1.309314e+09 	 1.073450e+22 	 1.209280e+08 	 9.226438e+38 	 6.031267e+38 	 2.729757e+22 	 2.800722e+09
1.20056868e+01 	 2.387590e-05 	 2.845859e+03 	 4.039874e+04 	 1.306158e+09 	 1.061692e+22 	 1.193873e+08 	 9.226312e+38 	 6.031224e+38 	 2.701271e+22 	 2.772484e+09
1.20058325e+01 	 2.415445e-05 	 2.842429e+03 	 3.993175e+04 	 1.303012e+09 	 1.050073e+22 	 1.178663e+08 	 9.226186e+38 	 6.031180e+38 	 2.673109e+22 	 2.744525e+09
1.20059782e+01 	 2.443625e-05 	 2.839007e+03 	 3.947017e+04 	 1.299876e+09 	 1.038592e+22 	 1.163648e+08 	 9.226060e+38 	 6.031136e+38 	 2.645267e+22 	 2.716843e+09
1.20061239e+01 	 2.472134e-05 	 2.835592e+03 	 3.901392e+04 	 1.296751e+09 	 1.027248e+22 	 1.148826e+08 	 9.225933e+38 	 6.031093e+38 	 2.617742e+22 	 2.689433e+09
1.20062695e+01 	 2.500976e-05 	 2.832183e+03 	 3.856295e+04 	 1.293635e+09 	 1.016038e+22 	 1.134194e+08 	 9.225807e+38 	 6.031049e+38 	 2.590530e+22 	 2.662295e+09
1.20064151e+01 	 2.530154e-05 	 2.828782e+03 	 3.811718e+04 	 1.290530e+09 	 1.004960e+22 	 1.119749e+08 	 9.225680e+38 	 6.031004e+38 	 2.563627e+22 	 2.635425e+09
1.20065606e+01 	 2.559673e-05 	 2.825388e+03 	 3.767658e+04 	 1.287435e+09 	 9.940141e+21 	 1.105490e+08 	 9.225553e+38 	 6.030960e+38 	 2.537030e+22 	 2.608821e+09
1.20067061e+01 	 2.589536e-05 	 2.822000e+03 	 3.724106e+04 	 1.284349e+09 	 9.831975e+21 	 1.091414e+08 	 9.225426e+38 	 6.030916e+38 	 2.510734e+22 	 2.582480e+09
1.20068516e+01 	 2.619747e-05 	 2.818620e+03 	 3.681058e+04 	 1.281274e+09 	 9.725088e+21 	 1.077518e+08 	 9.225299e+38 	 6.030871e+38 	 2.484736e+22 	 2.556399e+09
1.20069970e+01 	 2.650311e-05 	 2.815246e+03 	 3.638507e+04 	 1.278209e+09 	 9.619464e+21 	 1.063800e+08 	 9.225171e+38 	 6.030827e+38 	 2.459033e+22 	 2.530577e+09
1.20071424e+01 	 2.681232e-05 	 2.811879e+03 	 3.596449e+04 	 1.275153e+09 	 9.515089e+21 	 1.050258e+08 	 9.225044e+38 	 6.030782e+38 	 2.433621e+22 	 2.505009e+09
1.20072878e+01 	 2.712513e-05 	 2.808519e+03 	 3.554876e+04 	 1.272108e+09 	 9.411945e+21 	 1.036890e+08 	 9.224916e+38 	 6.030737e+38 	 2.408496e+22 	 2.479695e+09
1.20074331e+01 	 2.744159e-05 	 2.805167e+03 	 3.513784e+04 	 1.269072e+09 	 9.310019e+21 	 1.023693e+08 	 9.224788e+38 	 6.030692e+38 	 2.383656e+22 	 2.454632e+09
1.20075784e+01 	 2.776175e-05 	 2.801821e+03 	 3.473167e+04 	 1.266047e+09 	 9.209294e+21 	 1.010665e+08 	 9.224660e+38 	 6.030647e+38 	 2.359096e+22 	 2.429817e+09
1.20077237e+01 	 2.808564e-05 	 2.798482e+03 	 3.433020e+04 	 1.263031e+09 	 9.109757e+21 	 9.978046e+07 	 9.224532e+38 	 6.030602e+38 	 2.334814e+22 	 2.405247e+09
1.20078690e+01 	 2.841331e-05 	 2.795149e+03 	 3.393336e+04 	 1.260025e+09 	 9.011393e+21 	 9.851086e+07 	 9.224404e+38 	 6.030557e+38 	 2.310806e+22 	 2.380921e+09
1.20080142e+01 	 2.874480e-05 	 2.791824e+03 	 3.354112e+04 	 1.257029e+09 	 8.914186e+21 	 9.725754e+07 	 9.224275e+38 	 6.030512e+38 	 2.287069e+22 	 2.356836e+09
1.20081594e+01 	 2.908016e-05 	 2.788506e+03 	 3.315340e+04 	 1.254042e+09 	 8.818122e+21 	 9.602027e+07 	 9.224147e+38 	 6.030466e+38 	 2.263599e+22 	 2.332989e+09
1.20083046e+01 	 2.941943e-05 	 2.785194e+03 	 3.277017e+04 	 1.251065e+09 	 8.723188e+21 	 9.479886e+07 	 9.224018e+38 	 6.030420e+38 	 2.240393e+22 	 2.309379e+09
1.20084497e+01 	 2.976266e-05 	 2.781889e+03 	 3.239137e+04 	 1.248098e+09 	 8.629370e+21 	 9.359309e+07 	 9.223889e+38 	 6.030375e+38 	 2.217449e+22 	 2.286003e+09
1.20085948e+01 	 3.010990e-05 	 2.778592e+03 	 3.201695e+04 	 1.245141e+09 	 8.536653e+21 	 9.240277e+07 	 9.223759e+38 	 6.030329e+38 	 2.194763e+22 	 2.262859e+09
1.20087399e+01 	 3.046119e-05 	 2.775301e+03 	 3.164685e+04 	 1.242193e+09 	 8.445025e+21 	 9.122770e+07 	 9.223630e+38 	 6.030283e+38 	 2.172332e+22 	 2.239944e+09
1.20088850e+01 	 3.081657e-05 	 2.772017e+03 	 3.128104e+04 	 1.239255e+09 	 8.354471e+21 	 9.006768e+07 	 9.223500e+38 	 6.030237e+38 	 2.150153e+22 	 2.217256e+09
1.20090301e+01 	 3.117610e-05 	 2.768739e+03 	 3.091945e+04 	 1.236327e+09 	 8.264978e+21 	 8.892252e+07 	 9.223371e+38 	 6.030190e+38 	 2.128223e+22 	 2.194794e+09
1.20091751e+01 	 3.153983e-05 	 2.765469e+03 	 3.056204e+04 	 1.233408e+09 	 8.176534e+21 	 8.779202e+07 	 9.223241e+38 	 6.030144e+38 	 2.106539e+22 	 2.172554e+09
1.20093202e+01 	 3.190780e-05 	 2.762205e+03 	 3.020877e+04 	 1.230498e+09 	 8.089125e+21 	 8.667599e+07 	 9.223110e+38 	 6.030097e+38 	 2.085099e+22 	 2.150535e+09
1.20094652e+01 	 3.228006e-05 	 2.758948e+03 	 2.985957e+04 	 1.227598e+09 	 8.002739e+21 	 8.557426e+07 	 9.222980e+38 	 6.030051e+38 	 2.063898e+22 	 2.128735e+09
1.20096102e+01 	 3.265667e-05 	 2.755698e+03 	 2.951442e+04 	 1.224708e+09 	 7.917363e+21 	 8.448663e+07 	 9.222849e+38 	 6.030004e+38 	 2.042935e+22 	 2.107151e+09
1.20097552e+01 	 3.303767e-05 	 2.752455e+03 	 2.917325e+04 	 1.221827e+09 	 7.832985e+21 	 8.341293e+07 	 9.222719e+38 	 6.029957e+38 	 2.022207e+22 	 2.085781e+09
1.20099001e+01 	 3.342312e-05 	 2.749219e+03 	 2.883603e+04 	 1.218955e+09 	 7.749593e+21 	 8.235297e+07 	 9.222588e+38 	 6.029910e+38 	 2.001711e+22 	 2.064624e+09
1.20100451e+01 	 3.381306e-05 	 2.745989e+03 	 2.850270e+04 	 1.216093e+09 	 7.667173e+21 	 8.130658e+07 	 9.222457e+38 	 6.029863e+38 	 1.981443e+22 	 2.043677e+09
1.20101900e+01 	 3.420755e-05 	 2.742766e+03 	 2.817323e+04 	 1.213240e+09 	 7.585714e+21 	 8.027358e+07 	 9.222325e+38 	 6.029815e+38 	 1.961402e+22 	 2.022938e+09
1.20103350e+01 	 3.460664e-05 	 2.739550e+03 	 2.784757e+04 	 1.210396e+09 	 7.505205e+21 	 7.925381e+07 	 9.222194e+38 	 6.029768e+38 	 1.941585e+22 	 2.002405e+09
1.20104799e+01 	 3.501040e-05 	 2.736341e+03 	 2.752567e+04 	 1.207562e+09 	 7.425635e+21 	 7.824708e+07 	 9.222062e+38 	 6.029720e+38 	 1.921989e+22 	 1.982077e+09
1.20106248e+01 	 3.541886e-05 	 2.733138e+03 	 2.720749e+04 	 1.204737e+09 	 7.346990e+21 	 7.725324e+07 	 9.221930e+38 	 6.029672e+38 	 1.902611e+22 	 1.961950e+09
1.20107697e+01 	 3.583208e-05 	 2.729943e+03 	 2.689299e+04 	 1.201922e+09 	 7.269261e+21 	 7.627211e+07 	 9.221798e+38 	 6.029624e+38 	 1.883450e+22 	 1.942024e+09
1.20109146e+01 	 3.625013e-05 	 2.726754e+03 	 2.658212e+04 	 1.199115e+09 	 7.192436e+21 	 7.530354e+07 	 9.221665e+38 	 6.029576e+38 	 1.864501e+22 	 1.922295e+09
1.20110595e+01 	 3.667306e-05 	 2.723572e+03 	 2.627485e+04 	 1.196318e+09 	 7.116503e+21 	 7.434735e+07 	 9.221533e+38 	 6.029528e+38 	 1.845763e+22 	 1.902763e+09
1.20112044e+01 	 3.710092e-05 	 2.720396e+03 	 2.597113e+04 	 1.193530e+09 	 7.041451e+21 	 7.340340e+07 	 9.221400e+38 	 6.029480e+38 	 1.827234e+22 	 1.883426e+09
1.20113493e+01 	 3.753377e-05 	 2.717227e+03 	 2.567092e+04 	 1.190751e+09 	 6.967270e+21 	 7.247152e+07 	 9.221267e+38 	 6.029431e+38 	 1.808910e+22 	 1.864281e+09
1.20114942e+01 	 3.797167e-05 	 2.714065e+03 	 2.537418e+04 	 1.187981e+09 	 6.893950e+21 	 7.155156e+07 	 9.221134e+38 	 6.029383e+38 	 1.790790e+22 	 1.845326e+09
1.20116391e+01 	 3.841468e-05 	 2.710910e+03 	 2.508088e+04 	 1.185221e+09 	 6.821479e+21 	 7.064336e+07 	 9.221000e+38 	 6.029334e+38 	 1.772871e+22 	 1.826560e+09
1.20117840e+01 	 3.886286e-05 	 2.707761e+03 	 2.479096e+04 	 1.182469e+09 	 6.749847e+21 	 6.974678e+07 	 9.220867e+38 	 6.029285e+38 	 1.755151e+22 	 1.807981e+09
1.20119289e+01 	 3.931627e-05 	 2.704619e+03 	 2.450439e+04 	 1.179727e+09 	 6.679045e+21 	 6.886167e+07 	 9.220733e+38 	 6.029236e+38 	 1.737627e+22 	 1.789587e+09
1.20120738e+01 	 3.977497e-05 	 2.701484e+03 	 2.422114e+04 	 1.176993e+09 	 6.609062e+21 	 6.798787e+07 	 9.220599e+38 	 6.029187e+38 	 1.720297e+22 	 1.771377e+09
1.20122187e+01 	 4.023901e-05 	 2.698356e+03 	 2.394116e+04 	 1.174269e+09 	 6.539887e+21 	 6.712524e+07 	 9.220464e+38 	 6.029138e+38 	 1.703159e+22 	 1.753348e+09
1.20123636e+01 	 4.070848e-05 	 2.695234e+03 	 2.366441e+04 	 1.171553e+09 	 6.471512e+21 	 6.627364e+07 	 9.220330e+38 	 6.029088e+38 	 1.686210e+22 	 1.735498e+09
1.20125085e+01 	 4.118342e-05 	 2.692119e+03 	 2.339087e+04 	 1.168846e+09 	 6.403927e+21 	 6.543293e+07 	 9.220195e+38 	 6.029038e+38 	 1.669449e+22 	 1.717826e+09
1.20126535e+01 	 4.166390e-05 	 2.689010e+03 	 2.312049e+04 	 1.166149e+09 	 6.337121e+21 	 6.460296e+07 	 9.220060e+38 	 6.028989e+38 	 1.652872e+22 	 1.700331e+09
1.20127984e+01 	 4.214999e-05 	 2.685908e+03 	 2.285323e+04 	 1.163460e+09 	 6.271085e+21 	 6.378360e+07 	 9.219924e+38 	 6.028939e+38 	 1.636479e+22 	 1.683010e+09
1.20129433e+01 	 4.264175e-05 	 2.682813e+03 	 2.258906e+04 	 1.160780e+09 	 6.205810e+21 	 6.297471e+07 	 9.219789e+38 	 6.028888e+38 	 1.620267e+22 	 1.665862e+09
1.20130883e+01 	 4.313924e-05 	 2.679725e+03 	 2.232795e+04 	 1.158109e+09 	 6.141287e+21 	 6.217615e+07 	 9.219653e+38 	 6.028838e+38 	 1.604233e+22 	 1.648885e+09
1.20132333e+01 	 4.364254e-05 	 2.676643e+03 	 2.206985e+04 	 1.155447e+09 	 6.077506e+21 	 6.138780e+07 	 9.219517e+38 	 6.028788e+38 	 1.588376e+22 	 1.632078e+09
1.20133782e+01 	 4.415171e-05 	 2.673568e+03 	 2.181474e+04 	 1.152793e+09 	 6.014459e+21 	 6.060953e+07 	 9.219381e+38 	 6.028737e+38 	 1.572693e+22 	 1.615438e+09
1.20135232e+01 	 4.466682e-05 	 2.670499e+03 	 2.156257e+04 	 1.150149e+09 	 5.952136e+21 	 5.984119e+07 	 9.219244e+38 	 6.028686e+38 	 1.557183e+22 	 1.598964e+09
1.20136682e+01 	 4.518794e-05 	 2.667437e+03 	 2.131333e+04 	 1.147513e+09 	 5.890529e+21 	 5.908267e+07 	 9.219107e+38 	 6.028635e+38 	 1.541843e+22 	 1.582655e+09
1.20138133e+01 	 4.571515e-05 	 2.664382e+03 	 2.106696e+04 	 1.144886e+09 	 5.829629e+21 	 5.833384e+07 	 9.218970e+38 	 6.028584e+38 	 1.526672e+22 	 1.566508e+09
1.20139583e+01 	 4.624850e-05 	 2.661333e+03 	 2.082344e+04 	 1.142267e+09 	 5.769427e+21 	 5.759458e+07 	 9.218833e+38 	 6.028533e+38 	 1.511667e+22 	 1.550523e+09
1.20141034e+01 	 4.678807e-05 	 2.658291e+03 	 2.058273e+04 	 1.139657e+09 	 5.709916e+21 	 5.686475e+07 	 9.218696e+38 	 6.028482e+38 	 1.496827e+22 	 1.534698e+09
1.20142484e+01 	 4.733394e-05 	 2.655256e+03 	 2.034481e+04 	 1.137056e+09 	 5.651086e+21 	 5.614425e+07 	 9.218558e+38 	 6.028430e+38 	 1.482149e+22 	 1.519031e+09
1.20143935e+01 	 4.788618e-05 	 2.652227e+03 	 2.010964e+04 	 1.134464e+09 	 5.592929e+21 	 5.543294e+07 	 9.218420e+38 	 6.028378e+38 	 1.467633e+22 	 1.503520e+09
1.20145386e+01 	 4.844486e-05 	 2.649205e+03 	 1.987718e+04 	 1.131880e+09 	 5.535438e+21 	 5.473072e+07 	 9.218281e+38 	 6.028326e+38 	 1.453275e+22 	 1.488165e+09
1.20146838e+01 	 4.901006e-05 	 2.646189e+03 	 1.964742e+04 	 1.129304e+09 	 5.478604e+21 	 5.403746e+07 	 9.218143e+38 	 6.028274e+38 	 1.439074e+22 	 1.472963e+09
1.20148290e+01 	 4.958185e-05 	 2.643180e+03 	 1.942031e+04 	 1.126737e+09 	 5.422418e+21 	 5.335306e+07 	 9.218004e+38 	 6.028222e+38 	 1.425028e+22 	 1.457913e+09
1.20149742e+01 	 5.016031e-05 	 2.640178e+03 	 1.919582e+04 	 1.124179e+09 	 5.366875e+21 	 5.267739e+07 	 9.217865e+38 	 6.028169e+38 	 1.411136e+22 	 1.443013e+09
1.20151194e+01 	 5.074552e-05 	 2.637182e+03 	 1.897393e+04 	 1.121629e+09 	 5.311965e+21 	 5.201034e+07 	 9.217725e+38 	 6.028117e+38 	 1.397396e+22 	 1.428263e+09
1.20152646e+01 	 5.133756e-05 	 2.634193e+03 	 1.875460e+04 	 1.119088e+09 	 5.257681e+21 	 5.135181e+07 	 9.217585e+38 	 6.028064e+38 	 1.383805e+22 	 1.413660e+09
1.20154099e+01 	 5.193650e-05 	 2.631210e+03 	 1.853781e+04 	 1.116555e+09 	 5.204015e+21 	 5.070168e+07 	 9.217445e+38 	 6.028011e+38 	 1.370363e+22 	 1.399204e+09
1.20155552e+01 	 5.254244e-05 	 2.628234e+03 	 1.832353e+04 	 1.114031e+09 	 5.150960e+21 	 5.005985e+07 	 9.217305e+38 	 6.027958e+38 	 1.357066e+22 	 1.384892e+09
1.20157005e+01 	 5.315544e-05 	 2.625264e+03 	 1.811172e+04 	 1.111515e+09 	 5.098509e+21 	 4.942620e+07 	 9.217165e+38 	 6.027904e+38 	 1.343915e+22 	 1.370724e+09
1.20158459e+01 	 5.377559e-05 	 2.622301e+03 	 1.790236e+04 	 1.109007e+09 	 5.046654e+21 	 4.880064e+07 	 9.217024e+38 	 6.027851e+38 	 1.330907e+22 	 1.356697e+09
1.20159913e+01 	 5.440298e-05 	 2.619345e+03 	 1.769542e+04 	 1.106507e+09 	 4.995388e+21 	 4.818307e+07 	 9.216883e+38 	 6.027797e+38 	 1.318040e+22 	 1.342811e+09
1.20161367e+01 	 5.503769e-05 	 2.616395e+03 	 1.749088e+04 	 1.104017e+09 	 4.944704e+21 	 4.757337e+07 	 9.216741e+38 	 6.027743e+38 	 1.305313e+22 	 1.329064e+09
1.20162822e+01 	 5.567980e-05 	 2.613451e+03 	 1.728869e+04 	 1.101534e+09 	 4.894595e+21 	 4.697144e+07 	 9.216599e+38 	 6.027689e+38 	 1.292724e+22 	 1.315455e+09
1.20164277e+01 	 5.632940e-05 	 2.610514e+03 	 1.708885e+04 	 1.099059e+09 	 4.845055e+21 	 4.637720e+07 	 9.216457e+38 	 6.027635e+38 	 1.280271e+22 	 1.301983e+09
1.20165733e+01 	 5.698659e-05 	 2.607584e+03 	 1.689131e+04 	 1.096593e+09 	 4.796075e+21 	 4.579053e+07 	 9.216315e+38 	 6.027580e+38 	 1.267954e+22 	 1.288645e+09
1.20167189e+01 	 5.765143e-05 	 2.604660e+03 	 1.669606e+04 	 1.094135e+09 	 4.747649e+21 	 4.521134e+07 	 9.216172e+38 	 6.027526e+38 	 1.255769e+22 	 1.275441e+09
1.20168645e+01 	 5.832404e-05 	 2.601742e+03 	 1.650306e+04 	 1.091686e+09 	 4.699772e+21 	 4.463954e+07 	 9.216029e+38 	 6.027471e+38 	 1.243717e+22 	 1.262370e+09
1.20170102e+01 	 5.900449e-05 	 2.598831e+03 	 1.631230e+04 	 1.089244e+09 	 4.652435e+21 	 4.407503e+07 	 9.215886e+38 	 6.027416e+38 	 1.231795e+22 	 1.249430e+09
1.20171559e+01 	 5.969288e-05 	 2.595927e+03 	 1.612374e+04 	 1.086811e+09 	 4.605633e+21 	 4.351772e+07 	 9.215743e+38 	 6.027361e+38 	 1.220002e+22 	 1.236619e+09
1.20173016e+01 	 6.038930e-05 	 2.593029e+03 	 1.593736e+04 	 1.084386e+09 	 4.559360e+21 	 4.296751e+07 	 9.215599e+38 	 6.027305e+38 	 1.208336e+22 	 1.223938e+09
1.20174474e+01 	 6.109384e-05 	 2.590137e+03 	 1.575314e+04 	 1.081968e+09 	 4.513608e+21 	 4.242431e+07 	 9.215455e+38 	 6.027250e+38 	 1.196796e+22 	 1.211383e+09
1.20175933e+01 	 6.180661e-05 	 2.587252e+03 	 1.557104e+04 	 1.079559e+09 	 4.468372e+21 	 4.188803e+07 	 9.215310e+38 	 6.027194e+38 	 1.185380e+22 	 1.198955e+09
1.20177392e+01 	 6.252769e-05 	 2.584373e+03 	 1.539105e+04 	 1.077159e+09 	 4.423646e+21 	 4.135860e+07 	 9.215165e+38 	 6.027138e+38 	 1.174088e+22 	 1.186651e+09
