r (km)        	 u (km/s)    	 cs (km/s)   	 rho (g/cm3) 	 T (K)       	 P (dyne/cm2) 	 phi         	 L (erg/s)   	 L* (erg/s)  	 E (erg)     	 tau        
1.19997854e+01 	 2.400203e-05 	 3.008355e+03 	 5.064810e+04 	 1.459577e+09 	 1.603655e+22 	 1.255552e+08 	 1.018676e+39 	 6.657333e+38 	 4.134804e+22 	 3.241950e+09
1.19999553e+01 	 2.428255e-05 	 3.004849e+03 	 5.006138e+04 	 1.456177e+09 	 1.586644e+22 	 1.239578e+08 	 1.018658e+39 	 6.657262e+38 	 4.093081e+22 	 3.209150e+09
1.20001253e+01 	 2.456635e-05 	 3.001350e+03 	 4.948147e+04 	 1.452789e+09 	 1.569833e+22 	 1.223809e+08 	 1.018639e+39 	 6.657191e+38 	 4.051824e+22 	 3.176674e+09
1.20002952e+01 	 2.485347e-05 	 2.997859e+03 	 4.890826e+04 	 1.449411e+09 	 1.553217e+22 	 1.208243e+08 	 1.018621e+39 	 6.657120e+38 	 4.011029e+22 	 3.144521e+09
1.20004651e+01 	 2.514395e-05 	 2.994376e+03 	 4.834170e+04 	 1.446044e+09 	 1.536795e+22 	 1.192875e+08 	 1.018602e+39 	 6.657048e+38 	 3.970690e+22 	 3.112685e+09
1.20006350e+01 	 2.543781e-05 	 2.990899e+03 	 4.778171e+04 	 1.442689e+09 	 1.520565e+22 	 1.177705e+08 	 1.018583e+39 	 6.656977e+38 	 3.930801e+22 	 3.081165e+09
1.20008049e+01 	 2.573512e-05 	 2.987431e+03 	 4.722820e+04 	 1.439345e+09 	 1.504524e+22 	 1.162729e+08 	 1.018565e+39 	 6.656905e+38 	 3.891358e+22 	 3.049958e+09
1.20009748e+01 	 2.603590e-05 	 2.983970e+03 	 4.668110e+04 	 1.436011e+09 	 1.488670e+22 	 1.147945e+08 	 1.018546e+39 	 6.656833e+38 	 3.852355e+22 	 3.019060e+09
1.20011447e+01 	 2.634019e-05 	 2.980516e+03 	 4.614034e+04 	 1.432689e+09 	 1.473000e+22 	 1.133351e+08 	 1.018527e+39 	 6.656760e+38 	 3.813786e+22 	 2.988468e+09
1.20013146e+01 	 2.664804e-05 	 2.977070e+03 	 4.560584e+04 	 1.429378e+09 	 1.457512e+22 	 1.118944e+08 	 1.018509e+39 	 6.656688e+38 	 3.775647e+22 	 2.958180e+09
1.20014845e+01 	 2.695949e-05 	 2.973631e+03 	 4.507753e+04 	 1.426078e+09 	 1.442204e+22 	 1.104721e+08 	 1.018490e+39 	 6.656615e+38 	 3.737932e+22 	 2.928192e+09
1.20016544e+01 	 2.727458e-05 	 2.970199e+03 	 4.455535e+04 	 1.422788e+09 	 1.427074e+22 	 1.090680e+08 	 1.018471e+39 	 6.656542e+38 	 3.700637e+22 	 2.898502e+09
1.20018243e+01 	 2.759335e-05 	 2.966775e+03 	 4.403921e+04 	 1.419510e+09 	 1.412119e+22 	 1.076820e+08 	 1.018452e+39 	 6.656469e+38 	 3.663756e+22 	 2.869106e+09
1.20019942e+01 	 2.791585e-05 	 2.963359e+03 	 4.352906e+04 	 1.416242e+09 	 1.397338e+22 	 1.063136e+08 	 1.018433e+39 	 6.656395e+38 	 3.627285e+22 	 2.840003e+09
1.20021641e+01 	 2.824211e-05 	 2.959949e+03 	 4.302481e+04 	 1.412985e+09 	 1.382728e+22 	 1.049629e+08 	 1.018414e+39 	 6.656322e+38 	 3.591219e+22 	 2.811188e+09
1.20023340e+01 	 2.857219e-05 	 2.956548e+03 	 4.252640e+04 	 1.409739e+09 	 1.368287e+22 	 1.036294e+08 	 1.018395e+39 	 6.656248e+38 	 3.555552e+22 	 2.782659e+09
1.20025039e+01 	 2.890613e-05 	 2.953153e+03 	 4.203377e+04 	 1.406504e+09 	 1.354014e+22 	 1.023130e+08 	 1.018376e+39 	 6.656173e+38 	 3.520281e+22 	 2.754414e+09
1.20026738e+01 	 2.924397e-05 	 2.949766e+03 	 4.154684e+04 	 1.403280e+09 	 1.339905e+22 	 1.010134e+08 	 1.018357e+39 	 6.656099e+38 	 3.485400e+22 	 2.726449e+09
1.20028438e+01 	 2.958576e-05 	 2.946386e+03 	 4.106556e+04 	 1.400066e+09 	 1.325960e+22 	 9.973050e+07 	 1.018338e+39 	 6.656024e+38 	 3.450906e+22 	 2.698762e+09
1.20030137e+01 	 2.993154e-05 	 2.943014e+03 	 4.058985e+04 	 1.396863e+09 	 1.312175e+22 	 9.846401e+07 	 1.018319e+39 	 6.655950e+38 	 3.416793e+22 	 2.671350e+09
1.20031837e+01 	 3.028136e-05 	 2.939649e+03 	 4.011965e+04 	 1.393670e+09 	 1.298550e+22 	 9.721374e+07 	 1.018300e+39 	 6.655874e+38 	 3.383056e+22 	 2.644211e+09
1.20033536e+01 	 3.063528e-05 	 2.936291e+03 	 3.965490e+04 	 1.390488e+09 	 1.285082e+22 	 9.597947e+07 	 1.018281e+39 	 6.655799e+38 	 3.349693e+22 	 2.617341e+09
1.20035236e+01 	 3.099332e-05 	 2.932941e+03 	 3.919553e+04 	 1.387317e+09 	 1.271769e+22 	 9.476100e+07 	 1.018262e+39 	 6.655723e+38 	 3.316697e+22 	 2.590739e+09
1.20036937e+01 	 3.135556e-05 	 2.929598e+03 	 3.874148e+04 	 1.384156e+09 	 1.258609e+22 	 9.355812e+07 	 1.018242e+39 	 6.655648e+38 	 3.284065e+22 	 2.564401e+09
1.20038637e+01 	 3.172202e-05 	 2.926262e+03 	 3.829270e+04 	 1.381006e+09 	 1.245601e+22 	 9.237064e+07 	 1.018223e+39 	 6.655571e+38 	 3.251793e+22 	 2.538326e+09
1.20040337e+01 	 3.209277e-05 	 2.922934e+03 	 3.784911e+04 	 1.377866e+09 	 1.232742e+22 	 9.119835e+07 	 1.018204e+39 	 6.655495e+38 	 3.219876e+22 	 2.512510e+09
1.20042038e+01 	 3.246786e-05 	 2.919613e+03 	 3.741066e+04 	 1.374737e+09 	 1.220031e+22 	 9.004107e+07 	 1.018184e+39 	 6.655418e+38 	 3.188310e+22 	 2.486950e+09
1.20043739e+01 	 3.284732e-05 	 2.916299e+03 	 3.697729e+04 	 1.371618e+09 	 1.207466e+22 	 8.889859e+07 	 1.018165e+39 	 6.655342e+38 	 3.157091e+22 	 2.461646e+09
1.20045440e+01 	 3.323122e-05 	 2.912993e+03 	 3.654894e+04 	 1.368510e+09 	 1.195046e+22 	 8.777072e+07 	 1.018146e+39 	 6.655264e+38 	 3.126216e+22 	 2.436593e+09
1.20047141e+01 	 3.361961e-05 	 2.909694e+03 	 3.612555e+04 	 1.365412e+09 	 1.182768e+22 	 8.665729e+07 	 1.018126e+39 	 6.655187e+38 	 3.095679e+22 	 2.411790e+09
1.20048843e+01 	 3.401254e-05 	 2.906402e+03 	 3.570706e+04 	 1.362324e+09 	 1.170630e+22 	 8.555809e+07 	 1.018107e+39 	 6.655109e+38 	 3.065477e+22 	 2.387233e+09
1.20050545e+01 	 3.441006e-05 	 2.903117e+03 	 3.529343e+04 	 1.359246e+09 	 1.158632e+22 	 8.447295e+07 	 1.018087e+39 	 6.655031e+38 	 3.035606e+22 	 2.362922e+09
1.20052247e+01 	 3.481222e-05 	 2.899840e+03 	 3.488458e+04 	 1.356179e+09 	 1.146770e+22 	 8.340169e+07 	 1.018067e+39 	 6.654953e+38 	 3.006062e+22 	 2.338853e+09
1.20053950e+01 	 3.521909e-05 	 2.896570e+03 	 3.448048e+04 	 1.353122e+09 	 1.135045e+22 	 8.234412e+07 	 1.018048e+39 	 6.654875e+38 	 2.976841e+22 	 2.315023e+09
1.20055653e+01 	 3.563071e-05 	 2.893307e+03 	 3.408105e+04 	 1.350075e+09 	 1.123453e+22 	 8.130008e+07 	 1.018028e+39 	 6.654796e+38 	 2.947940e+22 	 2.291431e+09
1.20057356e+01 	 3.604714e-05 	 2.890051e+03 	 3.368625e+04 	 1.347039e+09 	 1.111994e+22 	 8.026938e+07 	 1.018008e+39 	 6.654717e+38 	 2.919354e+22 	 2.268075e+09
1.20059060e+01 	 3.646844e-05 	 2.886803e+03 	 3.329602e+04 	 1.344013e+09 	 1.100665e+22 	 7.925186e+07 	 1.017989e+39 	 6.654638e+38 	 2.891081e+22 	 2.244951e+09
1.20060764e+01 	 3.689466e-05 	 2.883562e+03 	 3.291032e+04 	 1.340996e+09 	 1.089466e+22 	 7.824735e+07 	 1.017969e+39 	 6.654558e+38 	 2.863117e+22 	 2.222058e+09
1.20062468e+01 	 3.732586e-05 	 2.880328e+03 	 3.252908e+04 	 1.337990e+09 	 1.078394e+22 	 7.725567e+07 	 1.017949e+39 	 6.654478e+38 	 2.835457e+22 	 2.199394e+09
1.20064173e+01 	 3.776210e-05 	 2.877101e+03 	 3.215226e+04 	 1.334994e+09 	 1.067449e+22 	 7.627667e+07 	 1.017929e+39 	 6.654398e+38 	 2.808099e+22 	 2.176956e+09
1.20065878e+01 	 3.820344e-05 	 2.873882e+03 	 3.177980e+04 	 1.332008e+09 	 1.056628e+22 	 7.531018e+07 	 1.017909e+39 	 6.654318e+38 	 2.781038e+22 	 2.154741e+09
1.20067584e+01 	 3.864994e-05 	 2.870669e+03 	 3.141166e+04 	 1.329032e+09 	 1.045930e+22 	 7.435604e+07 	 1.017889e+39 	 6.654237e+38 	 2.754272e+22 	 2.132749e+09
1.20069290e+01 	 3.910166e-05 	 2.867464e+03 	 3.104778e+04 	 1.326066e+09 	 1.035353e+22 	 7.341409e+07 	 1.017869e+39 	 6.654156e+38 	 2.727797e+22 	 2.110976e+09
1.20070996e+01 	 3.955865e-05 	 2.864266e+03 	 3.068812e+04 	 1.323110e+09 	 1.024897e+22 	 7.248417e+07 	 1.017849e+39 	 6.654075e+38 	 2.701610e+22 	 2.089421e+09
1.20072703e+01 	 4.002099e-05 	 2.861076e+03 	 3.033262e+04 	 1.320164e+09 	 1.014559e+22 	 7.156613e+07 	 1.017829e+39 	 6.653993e+38 	 2.675706e+22 	 2.068081e+09
1.20074411e+01 	 4.048872e-05 	 2.857892e+03 	 2.998124e+04 	 1.317227e+09 	 1.004339e+22 	 7.065982e+07 	 1.017809e+39 	 6.653911e+38 	 2.650084e+22 	 2.046954e+09
1.20076119e+01 	 4.096193e-05 	 2.854716e+03 	 2.963394e+04 	 1.314301e+09 	 9.942340e+21 	 6.976508e+07 	 1.017788e+39 	 6.653829e+38 	 2.624739e+22 	 2.026039e+09
1.20077827e+01 	 4.144066e-05 	 2.851546e+03 	 2.929065e+04 	 1.311384e+09 	 9.842437e+21 	 6.888177e+07 	 1.017768e+39 	 6.653747e+38 	 2.599669e+22 	 2.005332e+09
1.20079536e+01 	 4.192499e-05 	 2.848384e+03 	 2.895134e+04 	 1.308477e+09 	 9.743664e+21 	 6.800973e+07 	 1.017748e+39 	 6.653664e+38 	 2.574870e+22 	 1.984833e+09
1.20081246e+01 	 4.241498e-05 	 2.845229e+03 	 2.861597e+04 	 1.305580e+09 	 9.646008e+21 	 6.714883e+07 	 1.017727e+39 	 6.653581e+38 	 2.550340e+22 	 1.964538e+09
1.20082956e+01 	 4.291070e-05 	 2.842082e+03 	 2.828448e+04 	 1.302693e+09 	 9.549455e+21 	 6.629893e+07 	 1.017707e+39 	 6.653498e+38 	 2.526074e+22 	 1.944447e+09
1.20084667e+01 	 4.341221e-05 	 2.838941e+03 	 2.795682e+04 	 1.299816e+09 	 9.453991e+21 	 6.545987e+07 	 1.017686e+39 	 6.653414e+38 	 2.502070e+22 	 1.924557e+09
1.20086378e+01 	 4.391958e-05 	 2.835807e+03 	 2.763297e+04 	 1.296948e+09 	 9.359605e+21 	 6.463152e+07 	 1.017666e+39 	 6.653330e+38 	 2.478326e+22 	 1.904865e+09
1.20088090e+01 	 4.443288e-05 	 2.832681e+03 	 2.731286e+04 	 1.294090e+09 	 9.266282e+21 	 6.381374e+07 	 1.017645e+39 	 6.653246e+38 	 2.454837e+22 	 1.885371e+09
1.20089802e+01 	 4.495218e-05 	 2.829562e+03 	 2.699647e+04 	 1.291241e+09 	 9.174010e+21 	 6.300641e+07 	 1.017625e+39 	 6.653161e+38 	 2.431601e+22 	 1.866072e+09
1.20091515e+01 	 4.547754e-05 	 2.826449e+03 	 2.668374e+04 	 1.288402e+09 	 9.082777e+21 	 6.220937e+07 	 1.017604e+39 	 6.653076e+38 	 2.408616e+22 	 1.846967e+09
1.20093229e+01 	 4.600905e-05 	 2.823344e+03 	 2.637463e+04 	 1.285573e+09 	 8.992570e+21 	 6.142250e+07 	 1.017583e+39 	 6.652991e+38 	 2.385877e+22 	 1.828052e+09
1.20094943e+01 	 4.654677e-05 	 2.820246e+03 	 2.606910e+04 	 1.282753e+09 	 8.903376e+21 	 6.064567e+07 	 1.017563e+39 	 6.652906e+38 	 2.363383e+22 	 1.809328e+09
1.20096658e+01 	 4.709077e-05 	 2.817155e+03 	 2.576711e+04 	 1.279943e+09 	 8.815185e+21 	 5.987875e+07 	 1.017542e+39 	 6.652820e+38 	 2.341131e+22 	 1.790790e+09
1.20098374e+01 	 4.764113e-05 	 2.814071e+03 	 2.546862e+04 	 1.277142e+09 	 8.727982e+21 	 5.912162e+07 	 1.017521e+39 	 6.652733e+38 	 2.319117e+22 	 1.772439e+09
1.20100090e+01 	 4.819792e-05 	 2.810995e+03 	 2.517359e+04 	 1.274351e+09 	 8.641757e+21 	 5.837414e+07 	 1.017500e+39 	 6.652647e+38 	 2.297339e+22 	 1.754272e+09
1.20101808e+01 	 4.876121e-05 	 2.807925e+03 	 2.488197e+04 	 1.271569e+09 	 8.556498e+21 	 5.763620e+07 	 1.017479e+39 	 6.652560e+38 	 2.275795e+22 	 1.736287e+09
1.20103526e+01 	 4.933109e-05 	 2.804862e+03 	 2.459374e+04 	 1.268797e+09 	 8.472193e+21 	 5.690766e+07 	 1.017458e+39 	 6.652473e+38 	 2.254481e+22 	 1.718482e+09
1.20105244e+01 	 4.990763e-05 	 2.801806e+03 	 2.430884e+04 	 1.266034e+09 	 8.388832e+21 	 5.618842e+07 	 1.017437e+39 	 6.652385e+38 	 2.233395e+22 	 1.700856e+09
1.20106963e+01 	 5.049091e-05 	 2.798758e+03 	 2.402724e+04 	 1.263280e+09 	 8.306403e+21 	 5.547834e+07 	 1.017416e+39 	 6.652298e+38 	 2.212535e+22 	 1.683406e+09
1.20108684e+01 	 5.108100e-05 	 2.795716e+03 	 2.374891e+04 	 1.260536e+09 	 8.224894e+21 	 5.477732e+07 	 1.017394e+39 	 6.652209e+38 	 2.191898e+22 	 1.666132e+09
1.20110405e+01 	 5.167799e-05 	 2.792682e+03 	 2.347380e+04 	 1.257801e+09 	 8.144295e+21 	 5.408523e+07 	 1.017373e+39 	 6.652121e+38 	 2.171480e+22 	 1.649032e+09
1.20112126e+01 	 5.228195e-05 	 2.789654e+03 	 2.320187e+04 	 1.255075e+09 	 8.064595e+21 	 5.340197e+07 	 1.017352e+39 	 6.652032e+38 	 2.151281e+22 	 1.632103e+09
1.20113849e+01 	 5.289298e-05 	 2.786634e+03 	 2.293310e+04 	 1.252359e+09 	 7.985782e+21 	 5.272741e+07 	 1.017330e+39 	 6.651943e+38 	 2.131296e+22 	 1.615344e+09
1.20115572e+01 	 5.351114e-05 	 2.783620e+03 	 2.266744e+04 	 1.249652e+09 	 7.907846e+21 	 5.206145e+07 	 1.017309e+39 	 6.651853e+38 	 2.111524e+22 	 1.598753e+09
1.20117297e+01 	 5.413653e-05 	 2.780613e+03 	 2.240486e+04 	 1.246954e+09 	 7.830778e+21 	 5.140398e+07 	 1.017288e+39 	 6.651763e+38 	 2.091963e+22 	 1.582329e+09
1.20119022e+01 	 5.476922e-05 	 2.777614e+03 	 2.214531e+04 	 1.244265e+09 	 7.754566e+21 	 5.075488e+07 	 1.017266e+39 	 6.651673e+38 	 2.072609e+22 	 1.566070e+09
1.20120748e+01 	 5.540931e-05 	 2.774621e+03 	 2.188878e+04 	 1.241585e+09 	 7.679201e+21 	 5.011405e+07 	 1.017244e+39 	 6.651582e+38 	 2.053461e+22 	 1.549975e+09
1.20122475e+01 	 5.605687e-05 	 2.771636e+03 	 2.163522e+04 	 1.238915e+09 	 7.604672e+21 	 4.948139e+07 	 1.017223e+39 	 6.651491e+38 	 2.034516e+22 	 1.534041e+09
1.20124203e+01 	 5.671201e-05 	 2.768657e+03 	 2.138459e+04 	 1.236253e+09 	 7.530969e+21 	 4.885678e+07 	 1.017201e+39 	 6.651400e+38 	 2.015772e+22 	 1.518268e+09
1.20125932e+01 	 5.737480e-05 	 2.765685e+03 	 2.113687e+04 	 1.233601e+09 	 7.458084e+21 	 4.824013e+07 	 1.017179e+39 	 6.651308e+38 	 1.997226e+22 	 1.502653e+09
1.20127662e+01 	 5.804533e-05 	 2.762720e+03 	 2.089202e+04 	 1.230957e+09 	 7.386005e+21 	 4.763133e+07 	 1.017157e+39 	 6.651216e+38 	 1.978877e+22 	 1.487196e+09
1.20129393e+01 	 5.872370e-05 	 2.759762e+03 	 2.065000e+04 	 1.228323e+09 	 7.314724e+21 	 4.703029e+07 	 1.017136e+39 	 6.651123e+38 	 1.960722e+22 	 1.471894e+09
1.20131124e+01 	 5.941000e-05 	 2.756812e+03 	 2.041079e+04 	 1.225697e+09 	 7.244231e+21 	 4.643689e+07 	 1.017114e+39 	 6.651030e+38 	 1.942759e+22 	 1.456746e+09
1.20132857e+01 	 6.010432e-05 	 2.753868e+03 	 2.017434e+04 	 1.223081e+09 	 7.174516e+21 	 4.585106e+07 	 1.017092e+39 	 6.650937e+38 	 1.924985e+22 	 1.441750e+09
1.20134591e+01 	 6.080675e-05 	 2.750930e+03 	 1.994064e+04 	 1.220473e+09 	 7.105571e+21 	 4.527267e+07 	 1.017069e+39 	 6.650844e+38 	 1.907399e+22 	 1.426906e+09
1.20136326e+01 	 6.151739e-05 	 2.748000e+03 	 1.970965e+04 	 1.217875e+09 	 7.037386e+21 	 4.470166e+07 	 1.017047e+39 	 6.650750e+38 	 1.889998e+22 	 1.412211e+09
1.20138062e+01 	 6.223633e-05 	 2.745077e+03 	 1.948133e+04 	 1.215285e+09 	 6.969953e+21 	 4.413791e+07 	 1.017025e+39 	 6.650655e+38 	 1.872781e+22 	 1.397664e+09
1.20139799e+01 	 6.296367e-05 	 2.742161e+03 	 1.925565e+04 	 1.212704e+09 	 6.903262e+21 	 4.358133e+07 	 1.017003e+39 	 6.650560e+38 	 1.855745e+22 	 1.383264e+09
1.20141537e+01 	 6.369951e-05 	 2.739251e+03 	 1.903259e+04 	 1.210132e+09 	 6.837304e+21 	 4.303184e+07 	 1.016980e+39 	 6.650465e+38 	 1.838888e+22 	 1.369009e+09
1.20143276e+01 	 6.444396e-05 	 2.736349e+03 	 1.881212e+04 	 1.207569e+09 	 6.772072e+21 	 4.248933e+07 	 1.016958e+39 	 6.650370e+38 	 1.822208e+22 	 1.354897e+09
1.20145016e+01 	 6.519709e-05 	 2.733453e+03 	 1.859419e+04 	 1.205015e+09 	 6.707556e+21 	 4.195373e+07 	 1.016936e+39 	 6.650274e+38 	 1.805703e+22 	 1.340928e+09
1.20146757e+01 	 6.595903e-05 	 2.730564e+03 	 1.837880e+04 	 1.202469e+09 	 6.643748e+21 	 4.142494e+07 	 1.016913e+39 	 6.650177e+38 	 1.789372e+22 	 1.327100e+09
1.20148500e+01 	 6.672988e-05 	 2.727682e+03 	 1.816589e+04 	 1.199932e+09 	 6.580640e+21 	 4.090288e+07 	 1.016890e+39 	 6.650080e+38 	 1.773211e+22 	 1.313411e+09
1.20150244e+01 	 6.750973e-05 	 2.724807e+03 	 1.795546e+04 	 1.197404e+09 	 6.518223e+21 	 4.038746e+07 	 1.016868e+39 	 6.649983e+38 	 1.757220e+22 	 1.299860e+09
1.20151988e+01 	 6.829869e-05 	 2.721939e+03 	 1.774746e+04 	 1.194884e+09 	 6.456490e+21 	 3.987860e+07 	 1.016845e+39 	 6.649886e+38 	 1.741397e+22 	 1.286447e+09
1.20153734e+01 	 6.909687e-05 	 2.719077e+03 	 1.754187e+04 	 1.192373e+09 	 6.395431e+21 	 3.937620e+07 	 1.016822e+39 	 6.649788e+38 	 1.725738e+22 	 1.273168e+09
1.20155482e+01 	 6.990438e-05 	 2.716222e+03 	 1.733866e+04 	 1.189871e+09 	 6.335040e+21 	 3.888019e+07 	 1.016799e+39 	 6.649689e+38 	 1.710243e+22 	 1.260024e+09
1.20157230e+01 	 7.072132e-05 	 2.713375e+03 	 1.713781e+04 	 1.187377e+09 	 6.275308e+21 	 3.839049e+07 	 1.016776e+39 	 6.649590e+38 	 1.694910e+22 	 1.247012e+09
1.20158980e+01 	 7.154781e-05 	 2.710534e+03 	 1.693928e+04 	 1.184892e+09 	 6.216228e+21 	 3.790701e+07 	 1.016753e+39 	 6.649491e+38 	 1.679737e+22 	 1.234132e+09
1.20160731e+01 	 7.238396e-05 	 2.707699e+03 	 1.674305e+04 	 1.182415e+09 	 6.157793e+21 	 3.742968e+07 	 1.016730e+39 	 6.649391e+38 	 1.664722e+22 	 1.221382e+09
1.20162483e+01 	 7.322987e-05 	 2.704872e+03 	 1.654910e+04 	 1.179947e+09 	 6.099994e+21 	 3.695842e+07 	 1.016707e+39 	 6.649291e+38 	 1.649864e+22 	 1.208761e+09
1.20164237e+01 	 7.408567e-05 	 2.702051e+03 	 1.635739e+04 	 1.177488e+09 	 6.042824e+21 	 3.649314e+07 	 1.016684e+39 	 6.649190e+38 	 1.635160e+22 	 1.196267e+09
1.20165992e+01 	 7.495147e-05 	 2.699238e+03 	 1.616790e+04 	 1.175036e+09 	 5.986275e+21 	 3.603378e+07 	 1.016661e+39 	 6.649089e+38 	 1.620608e+22 	 1.183900e+09
1.20167748e+01 	 7.582739e-05 	 2.696431e+03 	 1.598061e+04 	 1.172594e+09 	 5.930340e+21 	 3.558025e+07 	 1.016637e+39 	 6.648988e+38 	 1.606208e+22 	 1.171658e+09
1.20169506e+01 	 7.671354e-05 	 2.693630e+03 	 1.579549e+04 	 1.170160e+09 	 5.875013e+21 	 3.513249e+07 	 1.016614e+39 	 6.648886e+38 	 1.591957e+22 	 1.159540e+09
1.20171265e+01 	 7.761004e-05 	 2.690837e+03 	 1.561251e+04 	 1.167734e+09 	 5.820286e+21 	 3.469041e+07 	 1.016590e+39 	 6.648784e+38 	 1.577854e+22 	 1.147544e+09
1.20173025e+01 	 7.851702e-05 	 2.688050e+03 	 1.543166e+04 	 1.165316e+09 	 5.766152e+21 	 3.425395e+07 	 1.016567e+39 	 6.648681e+38 	 1.563898e+22 	 1.135670e+09
1.20174787e+01 	 7.943459e-05 	 2.685270e+03 	 1.525289e+04 	 1.162907e+09 	 5.712605e+21 	 3.382303e+07 	 1.016543e+39 	 6.648578e+38 	 1.550085e+22 	 1.123916e+09
1.20176550e+01 	 8.036289e-05 	 2.682497e+03 	 1.507620e+04 	 1.160506e+09 	 5.659637e+21 	 3.339759e+07 	 1.016519e+39 	 6.648474e+38 	 1.536416e+22 	 1.112281e+09
1.20178314e+01 	 8.130203e-05 	 2.679730e+03 	 1.490156e+04 	 1.158114e+09 	 5.607241e+21 	 3.297754e+07 	 1.016495e+39 	 6.648370e+38 	 1.522887e+22 	 1.100763e+09
1.20180080e+01 	 8.225215e-05 	 2.676970e+03 	 1.472893e+04 	 1.155730e+09 	 5.555411e+21 	 3.256283e+07 	 1.016471e+39 	 6.648265e+38 	 1.509499e+22 	 1.089363e+09
1.20181848e+01 	 8.321337e-05 	 2.674217e+03 	 1.455831e+04 	 1.153354e+09 	 5.504140e+21 	 3.215338e+07 	 1.016448e+39 	 6.648160e+38 	 1.496248e+22 	 1.078078e+09
1.20183617e+01 	 8.418581e-05 	 2.671471e+03 	 1.438967e+04 	 1.150986e+09 	 5.453421e+21 	 3.174913e+07 	 1.016423e+39 	 6.648054e+38 	 1.483134e+22 	 1.066907e+09
1.20185388e+01 	 8.516962e-05 	 2.668731e+03 	 1.422297e+04 	 1.148626e+09 	 5.403249e+21 	 3.135002e+07 	 1.016399e+39 	 6.647948e+38 	 1.470155e+22 	 1.055850e+09
1.20187160e+01 	 8.616493e-05 	 2.665998e+03 	 1.405821e+04 	 1.146275e+09 	 5.353616e+21 	 3.095596e+07 	 1.016375e+39 	 6.647842e+38 	 1.457309e+22 	 1.044905e+09
1.20188934e+01 	 8.717186e-05 	 2.663272e+03 	 1.389536e+04 	 1.143931e+09 	 5.304518e+21 	 3.056691e+07 	 1.016351e+39 	 6.647735e+38 	 1.444595e+22 	 1.034070e+09
1.20190709e+01 	 8.819056e-05 	 2.660552e+03 	 1.373439e+04 	 1.141596e+09 	 5.255946e+21 	 3.018279e+07 	 1.016326e+39 	 6.647627e+38 	 1.432012e+22 	 1.023346e+09
1.20192486e+01 	 8.922116e-05 	 2.657839e+03 	 1.357529e+04 	 1.139269e+09 	 5.207896e+21 	 2.980355e+07 	 1.016302e+39 	 6.647519e+38 	 1.419558e+22 	 1.012730e+09
1.20194264e+01 	 9.026380e-05 	 2.655132e+03 	 1.341804e+04 	 1.136950e+09 	 5.160362e+21 	 2.942912e+07 	 1.016277e+39 	 6.647411e+38 	 1.407232e+22 	 1.002223e+09
1.20196044e+01 	 9.131862e-05 	 2.652433e+03 	 1.326260e+04 	 1.134639e+09 	 5.113336e+21 	 2.905944e+07 	 1.016253e+39 	 6.647302e+38 	 1.395032e+22 	 9.918214e+08
1.20197826e+01 	 9.238577e-05 	 2.649740e+03 	 1.310896e+04 	 1.132337e+09 	 5.066814e+21 	 2.869444e+07 	 1.016228e+39 	 6.647192e+38 	 1.382957e+22 	 9.815259e+08
1.20199609e+01 	 9.346538e-05 	 2.647053e+03 	 1.295711e+04 	 1.130042e+09 	 5.020790e+21 	 2.833408e+07 	 1.016203e+39 	 6.647082e+38 	 1.371005e+22 	 9.713349e+08
1.20201394e+01 	 9.455761e-05 	 2.644373e+03 	 1.280701e+04 	 1.127755e+09 	 4.975257e+21 	 2.797828e+07 	 1.016178e+39 	 6.646972e+38 	 1.359175e+22 	 9.612474e+08
1.20203181e+01 	 9.566259e-05 	 2.641700e+03 	 1.265865e+04 	 1.125476e+09 	 4.930210e+21 	 2.762700e+07 	 1.016153e+39 	 6.646861e+38 	 1.347466e+22 	 9.512624e+08
