r (km)        	 u (km/s)    	 cs (km/s)   	 rho (g/cm3) 	 T (K)       	 P (dyne/cm2) 	 phi         	 L (erg/s)   	 L* (erg/s)  	 E (erg)     	 tau        
1.20016931e+01 	 1.278842e-05 	 1.660583e+03 	 9.502498e+04 	 1.334171e+09 	 1.588498e+22 	 1.298475e+08 	 1.019894e+39 	 6.665857e+38 	 3.613580e+22 	 6.431733e+09
1.20017477e+01 	 1.293242e-05 	 1.658817e+03 	 9.396592e+04 	 1.331334e+09 	 1.571233e+22 	 1.282651e+08 	 1.019889e+39 	 6.665835e+38 	 3.576863e+22 	 6.368442e+09
1.20018023e+01 	 1.307805e-05 	 1.657054e+03 	 9.291865e+04 	 1.328507e+09 	 1.554174e+22 	 1.267021e+08 	 1.019883e+39 	 6.665813e+38 	 3.540568e+22 	 6.305760e+09
1.20018569e+01 	 1.322531e-05 	 1.655296e+03 	 9.188307e+04 	 1.325688e+09 	 1.537319e+22 	 1.251583e+08 	 1.019877e+39 	 6.665792e+38 	 3.504688e+22 	 6.243681e+09
1.20019116e+01 	 1.337423e-05 	 1.653541e+03 	 9.085902e+04 	 1.322879e+09 	 1.520665e+22 	 1.236335e+08 	 1.019871e+39 	 6.665769e+38 	 3.469219e+22 	 6.182201e+09
1.20019663e+01 	 1.352483e-05 	 1.651790e+03 	 8.984638e+04 	 1.320080e+09 	 1.504211e+22 	 1.221274e+08 	 1.019865e+39 	 6.665747e+38 	 3.434156e+22 	 6.121312e+09
1.20020209e+01 	 1.367712e-05 	 1.650043e+03 	 8.884503e+04 	 1.317289e+09 	 1.487953e+22 	 1.206398e+08 	 1.019860e+39 	 6.665725e+38 	 3.399494e+22 	 6.061010e+09
1.20020756e+01 	 1.383113e-05 	 1.648300e+03 	 8.785485e+04 	 1.314507e+09 	 1.471889e+22 	 1.191705e+08 	 1.019854e+39 	 6.665703e+38 	 3.365227e+22 	 6.001288e+09
1.20021304e+01 	 1.398687e-05 	 1.646561e+03 	 8.687569e+04 	 1.311735e+09 	 1.456017e+22 	 1.177192e+08 	 1.019848e+39 	 6.665680e+38 	 3.331352e+22 	 5.942142e+09
1.20021851e+01 	 1.414437e-05 	 1.644826e+03 	 8.590745e+04 	 1.308972e+09 	 1.440334e+22 	 1.162858e+08 	 1.019842e+39 	 6.665658e+38 	 3.297863e+22 	 5.883566e+09
1.20022399e+01 	 1.430364e-05 	 1.643094e+03 	 8.495000e+04 	 1.306217e+09 	 1.424837e+22 	 1.148699e+08 	 1.019836e+39 	 6.665635e+38 	 3.264755e+22 	 5.825555e+09
1.20022946e+01 	 1.446470e-05 	 1.641367e+03 	 8.400323e+04 	 1.303472e+09 	 1.409525e+22 	 1.134714e+08 	 1.019830e+39 	 6.665612e+38 	 3.232024e+22 	 5.768103e+09
1.20023494e+01 	 1.462758e-05 	 1.639643e+03 	 8.306700e+04 	 1.300736e+09 	 1.394395e+22 	 1.120901e+08 	 1.019824e+39 	 6.665589e+38 	 3.199665e+22 	 5.711205e+09
1.20024042e+01 	 1.479229e-05 	 1.637923e+03 	 8.214121e+04 	 1.298008e+09 	 1.379445e+22 	 1.107257e+08 	 1.019818e+39 	 6.665566e+38 	 3.167673e+22 	 5.654856e+09
1.20024591e+01 	 1.495885e-05 	 1.636207e+03 	 8.122573e+04 	 1.295290e+09 	 1.364673e+22 	 1.093781e+08 	 1.019812e+39 	 6.665543e+38 	 3.136046e+22 	 5.599051e+09
1.20025139e+01 	 1.512729e-05 	 1.634495e+03 	 8.032046e+04 	 1.292581e+09 	 1.350076e+22 	 1.080470e+08 	 1.019806e+39 	 6.665519e+38 	 3.104777e+22 	 5.543784e+09
1.20025688e+01 	 1.529763e-05 	 1.632787e+03 	 7.942528e+04 	 1.289880e+09 	 1.335652e+22 	 1.067323e+08 	 1.019800e+39 	 6.665496e+38 	 3.073862e+22 	 5.489050e+09
1.20026237e+01 	 1.546989e-05 	 1.631083e+03 	 7.854008e+04 	 1.287189e+09 	 1.321399e+22 	 1.054336e+08 	 1.019794e+39 	 6.665472e+38 	 3.043298e+22 	 5.434845e+09
1.20026786e+01 	 1.564408e-05 	 1.629382e+03 	 7.766474e+04 	 1.284506e+09 	 1.307316e+22 	 1.041509e+08 	 1.019788e+39 	 6.665448e+38 	 3.013079e+22 	 5.381163e+09
1.20027335e+01 	 1.582024e-05 	 1.627685e+03 	 7.679916e+04 	 1.281832e+09 	 1.293399e+22 	 1.028840e+08 	 1.019781e+39 	 6.665425e+38 	 2.983203e+22 	 5.328000e+09
1.20027884e+01 	 1.599838e-05 	 1.625992e+03 	 7.594322e+04 	 1.279167e+09 	 1.279646e+22 	 1.016326e+08 	 1.019775e+39 	 6.665401e+38 	 2.953663e+22 	 5.275350e+09
1.20028434e+01 	 1.617852e-05 	 1.624303e+03 	 7.509682e+04 	 1.276511e+09 	 1.266057e+22 	 1.003965e+08 	 1.019769e+39 	 6.665377e+38 	 2.924458e+22 	 5.223209e+09
1.20028984e+01 	 1.636070e-05 	 1.622618e+03 	 7.425986e+04 	 1.273864e+09 	 1.252628e+22 	 9.917562e+07 	 1.019763e+39 	 6.665352e+38 	 2.895582e+22 	 5.171572e+09
1.20029534e+01 	 1.654492e-05 	 1.620937e+03 	 7.343223e+04 	 1.271225e+09 	 1.239358e+22 	 9.796970e+07 	 1.019757e+39 	 6.665328e+38 	 2.867031e+22 	 5.120434e+09
1.20030085e+01 	 1.673122e-05 	 1.619259e+03 	 7.261381e+04 	 1.268595e+09 	 1.226244e+22 	 9.677856e+07 	 1.019751e+39 	 6.665304e+38 	 2.838802e+22 	 5.069790e+09
1.20030636e+01 	 1.691962e-05 	 1.617585e+03 	 7.180453e+04 	 1.265974e+09 	 1.213285e+22 	 9.560203e+07 	 1.019744e+39 	 6.665279e+38 	 2.810891e+22 	 5.019636e+09
1.20031186e+01 	 1.711014e-05 	 1.615915e+03 	 7.100426e+04 	 1.263361e+09 	 1.200479e+22 	 9.443992e+07 	 1.019738e+39 	 6.665254e+38 	 2.783293e+22 	 4.969968e+09
1.20031738e+01 	 1.730280e-05 	 1.614249e+03 	 7.021290e+04 	 1.260757e+09 	 1.187824e+22 	 9.329206e+07 	 1.019732e+39 	 6.665229e+38 	 2.756006e+22 	 4.920779e+09
1.20032289e+01 	 1.749764e-05 	 1.612587e+03 	 6.943037e+04 	 1.258162e+09 	 1.175317e+22 	 9.215827e+07 	 1.019725e+39 	 6.665204e+38 	 2.729025e+22 	 4.872067e+09
1.20032841e+01 	 1.769466e-05 	 1.610928e+03 	 6.865656e+04 	 1.255575e+09 	 1.162958e+22 	 9.103838e+07 	 1.019719e+39 	 6.665179e+38 	 2.702346e+22 	 4.823826e+09
1.20033393e+01 	 1.789391e-05 	 1.609274e+03 	 6.789138e+04 	 1.252997e+09 	 1.150745e+22 	 8.993222e+07 	 1.019713e+39 	 6.665154e+38 	 2.675967e+22 	 4.776052e+09
1.20033945e+01 	 1.809540e-05 	 1.607623e+03 	 6.713472e+04 	 1.250428e+09 	 1.138675e+22 	 8.883962e+07 	 1.019706e+39 	 6.665129e+38 	 2.649882e+22 	 4.728741e+09
1.20034497e+01 	 1.829915e-05 	 1.605976e+03 	 6.638650e+04 	 1.247867e+09 	 1.126746e+22 	 8.776040e+07 	 1.019700e+39 	 6.665103e+38 	 2.624090e+22 	 4.681887e+09
1.20035050e+01 	 1.850521e-05 	 1.604332e+03 	 6.564661e+04 	 1.245315e+09 	 1.114958e+22 	 8.669441e+07 	 1.019694e+39 	 6.665077e+38 	 2.598586e+22 	 4.635488e+09
1.20035603e+01 	 1.871358e-05 	 1.602693e+03 	 6.491497e+04 	 1.242771e+09 	 1.103308e+22 	 8.564148e+07 	 1.019687e+39 	 6.665052e+38 	 2.573367e+22 	 4.589538e+09
1.20036157e+01 	 1.892430e-05 	 1.601057e+03 	 6.419149e+04 	 1.240235e+09 	 1.091794e+22 	 8.460145e+07 	 1.019681e+39 	 6.665026e+38 	 2.548430e+22 	 4.544034e+09
1.20036710e+01 	 1.913739e-05 	 1.599425e+03 	 6.347606e+04 	 1.237708e+09 	 1.080415e+22 	 8.357417e+07 	 1.019674e+39 	 6.665000e+38 	 2.523770e+22 	 4.498970e+09
1.20037264e+01 	 1.935288e-05 	 1.597797e+03 	 6.276861e+04 	 1.235190e+09 	 1.069170e+22 	 8.255946e+07 	 1.019668e+39 	 6.664973e+38 	 2.499385e+22 	 4.454344e+09
1.20037818e+01 	 1.957079e-05 	 1.596173e+03 	 6.206905e+04 	 1.232680e+09 	 1.058056e+22 	 8.155719e+07 	 1.019661e+39 	 6.664947e+38 	 2.475272e+22 	 4.410150e+09
1.20038373e+01 	 1.979116e-05 	 1.594552e+03 	 6.137728e+04 	 1.230178e+09 	 1.047072e+22 	 8.056719e+07 	 1.019655e+39 	 6.664921e+38 	 2.451427e+22 	 4.366385e+09
1.20038928e+01 	 2.001402e-05 	 1.592936e+03 	 6.069323e+04 	 1.227684e+09 	 1.036216e+22 	 7.958932e+07 	 1.019648e+39 	 6.664894e+38 	 2.427847e+22 	 4.323044e+09
1.20039483e+01 	 2.023938e-05 	 1.591323e+03 	 6.001679e+04 	 1.225199e+09 	 1.025487e+22 	 7.862342e+07 	 1.019642e+39 	 6.664867e+38 	 2.404528e+22 	 4.280124e+09
1.20040038e+01 	 2.046727e-05 	 1.589713e+03 	 5.934790e+04 	 1.222723e+09 	 1.014883e+22 	 7.766934e+07 	 1.019635e+39 	 6.664840e+38 	 2.381469e+22 	 4.237620e+09
1.20040594e+01 	 2.069774e-05 	 1.588108e+03 	 5.868646e+04 	 1.220254e+09 	 1.004403e+22 	 7.672695e+07 	 1.019628e+39 	 6.664813e+38 	 2.358665e+22 	 4.195529e+09
1.20041150e+01 	 2.093080e-05 	 1.586506e+03 	 5.803239e+04 	 1.217794e+09 	 9.940449e+21 	 7.579610e+07 	 1.019622e+39 	 6.664786e+38 	 2.336113e+22 	 4.153847e+09
1.20041706e+01 	 2.116648e-05 	 1.584908e+03 	 5.738561e+04 	 1.215342e+09 	 9.838074e+21 	 7.487664e+07 	 1.019615e+39 	 6.664759e+38 	 2.313812e+22 	 4.112570e+09
1.20042263e+01 	 2.140482e-05 	 1.583314e+03 	 5.674604e+04 	 1.212898e+09 	 9.736890e+21 	 7.396844e+07 	 1.019608e+39 	 6.664731e+38 	 2.291757e+22 	 4.071693e+09
1.20042820e+01 	 2.164584e-05 	 1.581724e+03 	 5.611360e+04 	 1.210463e+09 	 9.636883e+21 	 7.307135e+07 	 1.019601e+39 	 6.664704e+38 	 2.269945e+22 	 4.031214e+09
1.20043378e+01 	 2.188957e-05 	 1.580137e+03 	 5.548821e+04 	 1.208036e+09 	 9.538037e+21 	 7.218524e+07 	 1.019595e+39 	 6.664676e+38 	 2.248374e+22 	 3.991128e+09
1.20043935e+01 	 2.213605e-05 	 1.578554e+03 	 5.486979e+04 	 1.205617e+09 	 9.440339e+21 	 7.130997e+07 	 1.019588e+39 	 6.664648e+38 	 2.227042e+22 	 3.951432e+09
1.20044494e+01 	 2.238530e-05 	 1.576975e+03 	 5.425826e+04 	 1.203206e+09 	 9.343773e+21 	 7.044542e+07 	 1.019581e+39 	 6.664620e+38 	 2.205944e+22 	 3.912121e+09
1.20045052e+01 	 2.263737e-05 	 1.575399e+03 	 5.365354e+04 	 1.200803e+09 	 9.248328e+21 	 6.959144e+07 	 1.019574e+39 	 6.664592e+38 	 2.185078e+22 	 3.873193e+09
1.20045611e+01 	 2.289226e-05 	 1.573828e+03 	 5.305557e+04 	 1.198408e+09 	 9.153987e+21 	 6.874791e+07 	 1.019567e+39 	 6.664563e+38 	 2.164442e+22 	 3.834644e+09
1.20046170e+01 	 2.315003e-05 	 1.572260e+03 	 5.246426e+04 	 1.196021e+09 	 9.060740e+21 	 6.791469e+07 	 1.019561e+39 	 6.664535e+38 	 2.144033e+22 	 3.796469e+09
1.20046730e+01 	 2.341070e-05 	 1.570696e+03 	 5.187954e+04 	 1.193643e+09 	 8.968570e+21 	 6.709167e+07 	 1.019554e+39 	 6.664506e+38 	 2.123847e+22 	 3.758667e+09
1.20047290e+01 	 2.367431e-05 	 1.569135e+03 	 5.130133e+04 	 1.191272e+09 	 8.877467e+21 	 6.627872e+07 	 1.019547e+39 	 6.664477e+38 	 2.103884e+22 	 3.721232e+09
1.20047850e+01 	 2.394088e-05 	 1.567578e+03 	 5.072957e+04 	 1.188910e+09 	 8.787416e+21 	 6.547570e+07 	 1.019540e+39 	 6.664448e+38 	 2.084139e+22 	 3.684161e+09
1.20048411e+01 	 2.421046e-05 	 1.566025e+03 	 5.016419e+04 	 1.186555e+09 	 8.698404e+21 	 6.468251e+07 	 1.019533e+39 	 6.664419e+38 	 2.064610e+22 	 3.647452e+09
1.20048972e+01 	 2.448307e-05 	 1.564476e+03 	 4.960510e+04 	 1.184208e+09 	 8.610419e+21 	 6.389902e+07 	 1.019526e+39 	 6.664390e+38 	 2.045295e+22 	 3.611100e+09
1.20049534e+01 	 2.475875e-05 	 1.562930e+03 	 4.905224e+04 	 1.181870e+09 	 8.523449e+21 	 6.312510e+07 	 1.019519e+39 	 6.664360e+38 	 2.026191e+22 	 3.575102e+09
1.20050096e+01 	 2.503753e-05 	 1.561388e+03 	 4.850555e+04 	 1.179539e+09 	 8.437480e+21 	 6.236064e+07 	 1.019512e+39 	 6.664331e+38 	 2.007296e+22 	 3.539455e+09
1.20050658e+01 	 2.531945e-05 	 1.559850e+03 	 4.796495e+04 	 1.177216e+09 	 8.352501e+21 	 6.160553e+07 	 1.019505e+39 	 6.664301e+38 	 1.988607e+22 	 3.504155e+09
1.20051221e+01 	 2.560455e-05 	 1.558316e+03 	 4.743038e+04 	 1.174901e+09 	 8.268500e+21 	 6.085965e+07 	 1.019497e+39 	 6.664271e+38 	 1.970122e+22 	 3.469200e+09
1.20051784e+01 	 2.589286e-05 	 1.556785e+03 	 4.690176e+04 	 1.172594e+09 	 8.185464e+21 	 6.012289e+07 	 1.019490e+39 	 6.664241e+38 	 1.951838e+22 	 3.434585e+09
1.20052348e+01 	 2.618441e-05 	 1.555258e+03 	 4.637903e+04 	 1.170294e+09 	 8.103382e+21 	 5.939513e+07 	 1.019483e+39 	 6.664210e+38 	 1.933754e+22 	 3.400308e+09
1.20052912e+01 	 2.647925e-05 	 1.553734e+03 	 4.586213e+04 	 1.168003e+09 	 8.022242e+21 	 5.867626e+07 	 1.019476e+39 	 6.664180e+38 	 1.915866e+22 	 3.366365e+09
1.20053477e+01 	 2.677740e-05 	 1.552215e+03 	 4.535099e+04 	 1.165719e+09 	 7.942032e+21 	 5.796618e+07 	 1.019469e+39 	 6.664149e+38 	 1.898172e+22 	 3.332753e+09
1.20054042e+01 	 2.707891e-05 	 1.550699e+03 	 4.484555e+04 	 1.163443e+09 	 7.862742e+21 	 5.726477e+07 	 1.019461e+39 	 6.664118e+38 	 1.880671e+22 	 3.299470e+09
1.20054607e+01 	 2.738382e-05 	 1.549187e+03 	 4.434574e+04 	 1.161175e+09 	 7.784360e+21 	 5.657192e+07 	 1.019454e+39 	 6.664088e+38 	 1.863359e+22 	 3.266511e+09
1.20055173e+01 	 2.769216e-05 	 1.547678e+03 	 4.385150e+04 	 1.158915e+09 	 7.706875e+21 	 5.588755e+07 	 1.019447e+39 	 6.664056e+38 	 1.846235e+22 	 3.233874e+09
1.20055739e+01 	 2.800397e-05 	 1.546173e+03 	 4.336277e+04 	 1.156662e+09 	 7.630276e+21 	 5.521153e+07 	 1.019440e+39 	 6.664025e+38 	 1.829296e+22 	 3.201556e+09
1.20056306e+01 	 2.831930e-05 	 1.544672e+03 	 4.287949e+04 	 1.154417e+09 	 7.554552e+21 	 5.454376e+07 	 1.019432e+39 	 6.663994e+38 	 1.812541e+22 	 3.169554e+09
1.20056873e+01 	 2.863817e-05 	 1.543174e+03 	 4.240159e+04 	 1.152180e+09 	 7.479693e+21 	 5.388415e+07 	 1.019425e+39 	 6.663962e+38 	 1.795966e+22 	 3.137864e+09
1.20057441e+01 	 2.896063e-05 	 1.541680e+03 	 4.192902e+04 	 1.149950e+09 	 7.405688e+21 	 5.323260e+07 	 1.019417e+39 	 6.663930e+38 	 1.779571e+22 	 3.106484e+09
1.20058009e+01 	 2.928673e-05 	 1.540190e+03 	 4.146172e+04 	 1.147728e+09 	 7.332527e+21 	 5.258900e+07 	 1.019410e+39 	 6.663898e+38 	 1.763353e+22 	 3.075411e+09
1.20058578e+01 	 2.961649e-05 	 1.538703e+03 	 4.099962e+04 	 1.145513e+09 	 7.260199e+21 	 5.195325e+07 	 1.019402e+39 	 6.663866e+38 	 1.747309e+22 	 3.044641e+09
1.20059147e+01 	 2.994997e-05 	 1.537221e+03 	 4.054268e+04 	 1.143307e+09 	 7.188694e+21 	 5.132527e+07 	 1.019395e+39 	 6.663834e+38 	 1.731438e+22 	 3.014172e+09
1.20059717e+01 	 3.028720e-05 	 1.535741e+03 	 4.009082e+04 	 1.141107e+09 	 7.118003e+21 	 5.070495e+07 	 1.019387e+39 	 6.663801e+38 	 1.715738e+22 	 2.984002e+09
1.20060287e+01 	 3.062823e-05 	 1.534266e+03 	 3.964401e+04 	 1.138915e+09 	 7.048115e+21 	 5.009220e+07 	 1.019380e+39 	 6.663768e+38 	 1.700207e+22 	 2.954126e+09
1.20060857e+01 	 3.097310e-05 	 1.532794e+03 	 3.920217e+04 	 1.136731e+09 	 6.979022e+21 	 4.948693e+07 	 1.019372e+39 	 6.663736e+38 	 1.684842e+22 	 2.924543e+09
1.20061428e+01 	 3.132185e-05 	 1.531325e+03 	 3.876526e+04 	 1.134554e+09 	 6.910712e+21 	 4.888905e+07 	 1.019365e+39 	 6.663702e+38 	 1.669643e+22 	 2.895250e+09
1.20062000e+01 	 3.167453e-05 	 1.529861e+03 	 3.833321e+04 	 1.132385e+09 	 6.843177e+21 	 4.829846e+07 	 1.019357e+39 	 6.663669e+38 	 1.654606e+22 	 2.866243e+09
1.20062572e+01 	 3.203118e-05 	 1.528400e+03 	 3.790599e+04 	 1.130223e+09 	 6.776407e+21 	 4.771507e+07 	 1.019349e+39 	 6.663636e+38 	 1.639730e+22 	 2.837520e+09
1.20063145e+01 	 3.239185e-05 	 1.526942e+03 	 3.748352e+04 	 1.128069e+09 	 6.710394e+21 	 4.713880e+07 	 1.019342e+39 	 6.663602e+38 	 1.625014e+22 	 2.809079e+09
1.20063718e+01 	 3.275657e-05 	 1.525489e+03 	 3.706576e+04 	 1.125922e+09 	 6.645126e+21 	 4.656956e+07 	 1.019334e+39 	 6.663568e+38 	 1.610455e+22 	 2.780916e+09
1.20064292e+01 	 3.312540e-05 	 1.524039e+03 	 3.665266e+04 	 1.123783e+09 	 6.580598e+21 	 4.600726e+07 	 1.019326e+39 	 6.663534e+38 	 1.596051e+22 	 2.753029e+09
1.20064866e+01 	 3.349839e-05 	 1.522592e+03 	 3.624416e+04 	 1.121650e+09 	 6.516798e+21 	 4.545182e+07 	 1.019318e+39 	 6.663500e+38 	 1.581801e+22 	 2.725416e+09
1.20065441e+01 	 3.387557e-05 	 1.521149e+03 	 3.584021e+04 	 1.119526e+09 	 6.453718e+21 	 4.490315e+07 	 1.019310e+39 	 6.663466e+38 	 1.567703e+22 	 2.698073e+09
1.20066017e+01 	 3.425700e-05 	 1.519710e+03 	 3.544077e+04 	 1.117408e+09 	 6.391350e+21 	 4.436117e+07 	 1.019302e+39 	 6.663431e+38 	 1.553756e+22 	 2.670999e+09
1.20066593e+01 	 3.464273e-05 	 1.518274e+03 	 3.504578e+04 	 1.115298e+09 	 6.329685e+21 	 4.382580e+07 	 1.019295e+39 	 6.663396e+38 	 1.539956e+22 	 2.644190e+09
1.20067169e+01 	 3.503280e-05 	 1.516843e+03 	 3.465519e+04 	 1.113195e+09 	 6.268713e+21 	 4.329696e+07 	 1.019287e+39 	 6.663361e+38 	 1.526304e+22 	 2.617644e+09
1.20067746e+01 	 3.542726e-05 	 1.515414e+03 	 3.426895e+04 	 1.111100e+09 	 6.208428e+21 	 4.277455e+07 	 1.019279e+39 	 6.663326e+38 	 1.512796e+22 	 2.591358e+09
1.20068324e+01 	 3.582616e-05 	 1.513989e+03 	 3.388702e+04 	 1.109011e+09 	 6.148820e+21 	 4.225852e+07 	 1.019271e+39 	 6.663291e+38 	 1.499432e+22 	 2.565331e+09
1.20068902e+01 	 3.622955e-05 	 1.512568e+03 	 3.350935e+04 	 1.106930e+09 	 6.089882e+21 	 4.174878e+07 	 1.019263e+39 	 6.663255e+38 	 1.486209e+22 	 2.539559e+09
1.20069481e+01 	 3.663748e-05 	 1.511151e+03 	 3.313588e+04 	 1.104856e+09 	 6.031605e+21 	 4.124524e+07 	 1.019254e+39 	 6.663219e+38 	 1.473127e+22 	 2.514040e+09
1.20070061e+01 	 3.705001e-05 	 1.509737e+03 	 3.276658e+04 	 1.102790e+09 	 5.973982e+21 	 4.074784e+07 	 1.019246e+39 	 6.663183e+38 	 1.460182e+22 	 2.488772e+09
1.20070641e+01 	 3.746718e-05 	 1.508326e+03 	 3.240139e+04 	 1.100730e+09 	 5.917005e+21 	 4.025650e+07 	 1.019238e+39 	 6.663147e+38 	 1.447375e+22 	 2.463752e+09
1.20071221e+01 	 3.788905e-05 	 1.506919e+03 	 3.204027e+04 	 1.098678e+09 	 5.860666e+21 	 3.977115e+07 	 1.019230e+39 	 6.663111e+38 	 1.434703e+22 	 2.438977e+09
1.20071803e+01 	 3.831566e-05 	 1.505516e+03 	 3.168318e+04 	 1.096633e+09 	 5.804957e+21 	 3.929170e+07 	 1.019222e+39 	 6.663074e+38 	 1.422165e+22 	 2.414447e+09
1.20072385e+01 	 3.874708e-05 	 1.504116e+03 	 3.133007e+04 	 1.094595e+09 	 5.749871e+21 	 3.881810e+07 	 1.019214e+39 	 6.663037e+38 	 1.409759e+22 	 2.390157e+09
1.20072967e+01 	 3.918336e-05 	 1.502720e+03 	 3.098089e+04 	 1.092564e+09 	 5.695400e+21 	 3.835026e+07 	 1.019205e+39 	 6.663000e+38 	 1.397483e+22 	 2.366107e+09
1.20073550e+01 	 3.962455e-05 	 1.501328e+03 	 3.063560e+04 	 1.090540e+09 	 5.641537e+21 	 3.788812e+07 	 1.019197e+39 	 6.662963e+38 	 1.385337e+22 	 2.342293e+09
1.20074134e+01 	 4.007071e-05 	 1.499939e+03 	 3.029417e+04 	 1.088523e+09 	 5.588275e+21 	 3.743160e+07 	 1.019189e+39 	 6.662926e+38 	 1.373318e+22 	 2.318713e+09
1.20074718e+01 	 4.052189e-05 	 1.498554e+03 	 2.995653e+04 	 1.086513e+09 	 5.535606e+21 	 3.698065e+07 	 1.019180e+39 	 6.662888e+38 	 1.361426e+22 	 2.295365e+09
1.20075304e+01 	 4.097815e-05 	 1.497172e+03 	 2.962266e+04 	 1.084510e+09 	 5.483523e+21 	 3.653518e+07 	 1.019172e+39 	 6.662850e+38 	 1.349659e+22 	 2.272247e+09
1.20075889e+01 	 4.143954e-05 	 1.495794e+03 	 2.929252e+04 	 1.082514e+09 	 5.432020e+21 	 3.609513e+07 	 1.019163e+39 	 6.662812e+38 	 1.338014e+22 	 2.249357e+09
1.20076476e+01 	 4.190613e-05 	 1.494419e+03 	 2.896605e+04 	 1.080526e+09 	 5.381090e+21 	 3.566044e+07 	 1.019155e+39 	 6.662774e+38 	 1.326492e+22 	 2.226692e+09
1.20077063e+01 	 4.237798e-05 	 1.493048e+03 	 2.864322e+04 	 1.078544e+09 	 5.330724e+21 	 3.523104e+07 	 1.019146e+39 	 6.662735e+38 	 1.315090e+22 	 2.204250e+09
1.20077650e+01 	 4.285513e-05 	 1.491680e+03 	 2.832399e+04 	 1.076569e+09 	 5.280918e+21 	 3.480686e+07 	 1.019138e+39 	 6.662696e+38 	 1.303808e+22 	 2.182030e+09
1.20078239e+01 	 4.333766e-05 	 1.490316e+03 	 2.800831e+04 	 1.074601e+09 	 5.231664e+21 	 3.438784e+07 	 1.019129e+39 	 6.662657e+38 	 1.292643e+22 	 2.160028e+09
1.20078828e+01 	 4.382562e-05 	 1.488956e+03 	 2.769616e+04 	 1.072640e+09 	 5.182955e+21 	 3.397392e+07 	 1.019121e+39 	 6.662618e+38 	 1.281595e+22 	 2.138243e+09
1.20079418e+01 	 4.431907e-05 	 1.487599e+03 	 2.738748e+04 	 1.070685e+09 	 5.134786e+21 	 3.356503e+07 	 1.019112e+39 	 6.662579e+38 	 1.270662e+22 	 2.116673e+09
1.20080008e+01 	 4.481808e-05 	 1.486245e+03 	 2.708224e+04 	 1.068738e+09 	 5.087149e+21 	 3.316112e+07 	 1.019103e+39 	 6.662539e+38 	 1.259842e+22 	 2.095316e+09
1.20080599e+01 	 4.532271e-05 	 1.484895e+03 	 2.678041e+04 	 1.066798e+09 	 5.040039e+21 	 3.276212e+07 	 1.019094e+39 	 6.662499e+38 	 1.249136e+22 	 2.074169e+09
1.20081191e+01 	 4.583302e-05 	 1.483549e+03 	 2.648194e+04 	 1.064864e+09 	 4.993449e+21 	 3.236797e+07 	 1.019086e+39 	 6.662459e+38 	 1.238540e+22 	 2.053231e+09
1.20081784e+01 	 4.634907e-05 	 1.482206e+03 	 2.618679e+04 	 1.062937e+09 	 4.947372e+21 	 3.197861e+07 	 1.019077e+39 	 6.662419e+38 	 1.228055e+22 	 2.032500e+09
1.20082377e+01 	 4.687094e-05 	 1.480867e+03 	 2.589494e+04 	 1.061017e+09 	 4.901803e+21 	 3.159398e+07 	 1.019068e+39 	 6.662378e+38 	 1.217678e+22 	 2.011973e+09
1.20082971e+01 	 4.739868e-05 	 1.479531e+03 	 2.560633e+04 	 1.059104e+09 	 4.856736e+21 	 3.121403e+07 	 1.019059e+39 	 6.662337e+38 	 1.207409e+22 	 1.991649e+09
1.20083566e+01 	 4.793236e-05 	 1.478199e+03 	 2.532095e+04 	 1.057197e+09 	 4.812165e+21 	 3.083870e+07 	 1.019050e+39 	 6.662296e+38 	 1.197246e+22 	 1.971526e+09
1.20084161e+01 	 4.847204e-05 	 1.476870e+03 	 2.503874e+04 	 1.055297e+09 	 4.768084e+21 	 3.046793e+07 	 1.019041e+39 	 6.662255e+38 	 1.187188e+22 	 1.951601e+09
