r (km)        	 u (km/s)    	 cs (km/s)   	 rho (g/cm3) 	 T (K)       	 P (dyne/cm2) 	 phi         	 L (erg/s)   	 L* (erg/s)  	 E (erg)     	 tau        
1.20028373e+01 	 3.075733e-05 	 3.024606e+03 	 4.432128e+04 	 1.475389e+09 	 1.600952e+22 	 9.847712e+07 	 1.074800e+39 	 7.025065e+38 	 4.203999e+22 	 2.818283e+09
1.20030229e+01 	 3.111733e-05 	 3.021225e+03 	 4.380699e+04 	 1.472093e+09 	 1.584695e+22 	 9.722753e+07 	 1.074776e+39 	 7.024967e+38 	 4.163433e+22 	 2.789560e+09
1.20032087e+01 	 3.148154e-05 	 3.017852e+03 	 4.329867e+04 	 1.468808e+09 	 1.568624e+22 	 9.599393e+07 	 1.074752e+39 	 7.024868e+38 	 4.123310e+22 	 2.761123e+09
1.20033944e+01 	 3.185001e-05 	 3.014486e+03 	 4.279625e+04 	 1.465533e+09 	 1.552736e+22 	 9.477612e+07 	 1.074728e+39 	 7.024769e+38 	 4.083623e+22 	 2.732971e+09
1.20035802e+01 	 3.222280e-05 	 3.011128e+03 	 4.229966e+04 	 1.462270e+09 	 1.537028e+22 	 9.357388e+07 	 1.074704e+39 	 7.024670e+38 	 4.044370e+22 	 2.705098e+09
1.20037661e+01 	 3.259994e-05 	 3.007778e+03 	 4.180883e+04 	 1.459018e+09 	 1.521499e+22 	 9.238703e+07 	 1.074680e+39 	 7.024570e+38 	 4.005543e+22 	 2.677504e+09
1.20039520e+01 	 3.298151e-05 	 3.004435e+03 	 4.132369e+04 	 1.455776e+09 	 1.506147e+22 	 9.121537e+07 	 1.074656e+39 	 7.024470e+38 	 3.967139e+22 	 2.650186e+09
1.20041380e+01 	 3.336753e-05 	 3.001100e+03 	 4.084419e+04 	 1.452546e+09 	 1.490969e+22 	 9.005869e+07 	 1.074632e+39 	 7.024370e+38 	 3.929152e+22 	 2.623139e+09
1.20043240e+01 	 3.375808e-05 	 2.997772e+03 	 4.037024e+04 	 1.449326e+09 	 1.475964e+22 	 8.891681e+07 	 1.074608e+39 	 7.024269e+38 	 3.891578e+22 	 2.596363e+09
1.20045101e+01 	 3.415320e-05 	 2.994452e+03 	 3.990180e+04 	 1.446118e+09 	 1.461128e+22 	 8.778954e+07 	 1.074583e+39 	 7.024168e+38 	 3.854412e+22 	 2.569854e+09
1.20046962e+01 	 3.455294e-05 	 2.991139e+03 	 3.943880e+04 	 1.442920e+09 	 1.446461e+22 	 8.667668e+07 	 1.074559e+39 	 7.024066e+38 	 3.817649e+22 	 2.543610e+09
1.20048824e+01 	 3.495736e-05 	 2.987834e+03 	 3.898116e+04 	 1.439733e+09 	 1.431960e+22 	 8.557805e+07 	 1.074535e+39 	 7.023964e+38 	 3.781284e+22 	 2.517629e+09
1.20050687e+01 	 3.536651e-05 	 2.984536e+03 	 3.852884e+04 	 1.436557e+09 	 1.417623e+22 	 8.449347e+07 	 1.074510e+39 	 7.023862e+38 	 3.745312e+22 	 2.491906e+09
1.20052550e+01 	 3.578045e-05 	 2.981246e+03 	 3.808176e+04 	 1.433391e+09 	 1.403448e+22 	 8.342275e+07 	 1.074486e+39 	 7.023759e+38 	 3.709730e+22 	 2.466441e+09
1.20054414e+01 	 3.619923e-05 	 2.977963e+03 	 3.763988e+04 	 1.430236e+09 	 1.389433e+22 	 8.236572e+07 	 1.074461e+39 	 7.023656e+38 	 3.674532e+22 	 2.441230e+09
1.20056279e+01 	 3.662292e-05 	 2.974688e+03 	 3.720312e+04 	 1.427092e+09 	 1.375576e+22 	 8.132221e+07 	 1.074436e+39 	 7.023553e+38 	 3.639714e+22 	 2.416272e+09
1.20058144e+01 	 3.705157e-05 	 2.971420e+03 	 3.677142e+04 	 1.423958e+09 	 1.361876e+22 	 8.029203e+07 	 1.074412e+39 	 7.023449e+38 	 3.605272e+22 	 2.391563e+09
1.20060010e+01 	 3.748523e-05 	 2.968160e+03 	 3.634474e+04 	 1.420835e+09 	 1.348330e+22 	 7.927501e+07 	 1.074387e+39 	 7.023345e+38 	 3.571202e+22 	 2.367101e+09
1.20061876e+01 	 3.792396e-05 	 2.964908e+03 	 3.592301e+04 	 1.417723e+09 	 1.334937e+22 	 7.827099e+07 	 1.074362e+39 	 7.023240e+38 	 3.537498e+22 	 2.342884e+09
1.20063744e+01 	 3.836783e-05 	 2.961662e+03 	 3.550617e+04 	 1.414621e+09 	 1.321694e+22 	 7.727980e+07 	 1.074337e+39 	 7.023135e+38 	 3.504157e+22 	 2.318909e+09
1.20065612e+01 	 3.881690e-05 	 2.958425e+03 	 3.509417e+04 	 1.411530e+09 	 1.308601e+22 	 7.630128e+07 	 1.074312e+39 	 7.023029e+38 	 3.471176e+22 	 2.295174e+09
1.20067481e+01 	 3.927122e-05 	 2.955194e+03 	 3.468695e+04 	 1.408449e+09 	 1.295654e+22 	 7.533525e+07 	 1.074287e+39 	 7.022924e+38 	 3.438548e+22 	 2.271677e+09
1.20069350e+01 	 3.973086e-05 	 2.951971e+03 	 3.428445e+04 	 1.405379e+09 	 1.282853e+22 	 7.438157e+07 	 1.074262e+39 	 7.022817e+38 	 3.406271e+22 	 2.248415e+09
1.20071221e+01 	 4.019588e-05 	 2.948756e+03 	 3.388663e+04 	 1.402319e+09 	 1.270196e+22 	 7.344006e+07 	 1.074237e+39 	 7.022711e+38 	 3.374340e+22 	 2.225386e+09
1.20073092e+01 	 4.066634e-05 	 2.945548e+03 	 3.349342e+04 	 1.399269e+09 	 1.257680e+22 	 7.251058e+07 	 1.074211e+39 	 7.022604e+38 	 3.342752e+22 	 2.202588e+09
1.20074964e+01 	 4.114230e-05 	 2.942347e+03 	 3.310477e+04 	 1.396230e+09 	 1.245305e+22 	 7.159297e+07 	 1.074186e+39 	 7.022496e+38 	 3.311502e+22 	 2.180018e+09
1.20076837e+01 	 4.162384e-05 	 2.939154e+03 	 3.272064e+04 	 1.393201e+09 	 1.233068e+22 	 7.068707e+07 	 1.074161e+39 	 7.022388e+38 	 3.280587e+22 	 2.157675e+09
1.20078711e+01 	 4.211101e-05 	 2.935968e+03 	 3.234096e+04 	 1.390182e+09 	 1.220969e+22 	 6.979274e+07 	 1.074135e+39 	 7.022280e+38 	 3.250003e+22 	 2.135555e+09
1.20080585e+01 	 4.260388e-05 	 2.932789e+03 	 3.196569e+04 	 1.387174e+09 	 1.209004e+22 	 6.890983e+07 	 1.074110e+39 	 7.022171e+38 	 3.219745e+22 	 2.113657e+09
1.20082461e+01 	 4.310252e-05 	 2.929618e+03 	 3.159477e+04 	 1.384176e+09 	 1.197173e+22 	 6.803819e+07 	 1.074084e+39 	 7.022062e+38 	 3.189810e+22 	 2.091979e+09
1.20084337e+01 	 4.360699e-05 	 2.926455e+03 	 3.122815e+04 	 1.381188e+09 	 1.185474e+22 	 6.717767e+07 	 1.074058e+39 	 7.021952e+38 	 3.160195e+22 	 2.070518e+09
1.20086214e+01 	 4.411737e-05 	 2.923298e+03 	 3.086579e+04 	 1.378210e+09 	 1.173905e+22 	 6.632813e+07 	 1.074033e+39 	 7.021842e+38 	 3.130896e+22 	 2.049273e+09
1.20088093e+01 	 4.463372e-05 	 2.920149e+03 	 3.050764e+04 	 1.375242e+09 	 1.162466e+22 	 6.548944e+07 	 1.074007e+39 	 7.021732e+38 	 3.101908e+22 	 2.028240e+09
1.20089972e+01 	 4.515612e-05 	 2.917008e+03 	 3.015364e+04 	 1.372285e+09 	 1.151154e+22 	 6.466145e+07 	 1.073981e+39 	 7.021621e+38 	 3.073230e+22 	 2.007419e+09
1.20091852e+01 	 4.568462e-05 	 2.913873e+03 	 2.980374e+04 	 1.369337e+09 	 1.139967e+22 	 6.384402e+07 	 1.073955e+39 	 7.021509e+38 	 3.044856e+22 	 1.986807e+09
1.20093733e+01 	 4.621932e-05 	 2.910747e+03 	 2.945791e+04 	 1.366400e+09 	 1.128905e+22 	 6.303701e+07 	 1.073929e+39 	 7.021397e+38 	 3.016784e+22 	 1.966402e+09
1.20095616e+01 	 4.676027e-05 	 2.907627e+03 	 2.911609e+04 	 1.363473e+09 	 1.117966e+22 	 6.224030e+07 	 1.073903e+39 	 7.021285e+38 	 2.989010e+22 	 1.946202e+09
1.20097499e+01 	 4.730755e-05 	 2.904515e+03 	 2.877824e+04 	 1.360555e+09 	 1.107148e+22 	 6.145376e+07 	 1.073877e+39 	 7.021172e+38 	 2.961530e+22 	 1.926205e+09
1.20099383e+01 	 4.786123e-05 	 2.901410e+03 	 2.844431e+04 	 1.357648e+09 	 1.096450e+22 	 6.067724e+07 	 1.073851e+39 	 7.021059e+38 	 2.934342e+22 	 1.906409e+09
1.20101269e+01 	 4.842139e-05 	 2.898312e+03 	 2.811425e+04 	 1.354751e+09 	 1.085871e+22 	 5.991063e+07 	 1.073824e+39 	 7.020945e+38 	 2.907442e+22 	 1.886811e+09
1.20103155e+01 	 4.898811e-05 	 2.895222e+03 	 2.778802e+04 	 1.351863e+09 	 1.075408e+22 	 5.915379e+07 	 1.073798e+39 	 7.020831e+38 	 2.880826e+22 	 1.867411e+09
1.20105043e+01 	 4.956146e-05 	 2.892138e+03 	 2.746558e+04 	 1.348985e+09 	 1.065062e+22 	 5.840660e+07 	 1.073771e+39 	 7.020717e+38 	 2.854492e+22 	 1.848206e+09
1.20106931e+01 	 5.014152e-05 	 2.889063e+03 	 2.714688e+04 	 1.346118e+09 	 1.054830e+22 	 5.766893e+07 	 1.073745e+39 	 7.020602e+38 	 2.828436e+22 	 1.829194e+09
1.20108821e+01 	 5.072837e-05 	 2.885994e+03 	 2.683187e+04 	 1.343260e+09 	 1.044710e+22 	 5.694067e+07 	 1.073718e+39 	 7.020486e+38 	 2.802655e+22 	 1.810374e+09
1.20110712e+01 	 5.132208e-05 	 2.882933e+03 	 2.652053e+04 	 1.340411e+09 	 1.034703e+22 	 5.622169e+07 	 1.073692e+39 	 7.020370e+38 	 2.777146e+22 	 1.791742e+09
1.20112604e+01 	 5.192275e-05 	 2.879879e+03 	 2.621279e+04 	 1.337573e+09 	 1.024806e+22 	 5.551187e+07 	 1.073665e+39 	 7.020253e+38 	 2.751906e+22 	 1.773299e+09
1.20114498e+01 	 5.253044e-05 	 2.876832e+03 	 2.590863e+04 	 1.334744e+09 	 1.015017e+22 	 5.481110e+07 	 1.073638e+39 	 7.020136e+38 	 2.726932e+22 	 1.755040e+09
1.20116392e+01 	 5.314524e-05 	 2.873792e+03 	 2.560799e+04 	 1.331925e+09 	 1.005337e+22 	 5.411926e+07 	 1.073611e+39 	 7.020019e+38 	 2.702221e+22 	 1.736966e+09
1.20118288e+01 	 5.376724e-05 	 2.870760e+03 	 2.531085e+04 	 1.329116e+09 	 9.957630e+21 	 5.343623e+07 	 1.073584e+39 	 7.019901e+38 	 2.677769e+22 	 1.719074e+09
1.20120185e+01 	 5.439651e-05 	 2.867735e+03 	 2.501715e+04 	 1.326316e+09 	 9.862942e+21 	 5.276190e+07 	 1.073557e+39 	 7.019782e+38 	 2.653574e+22 	 1.701362e+09
1.20122083e+01 	 5.503315e-05 	 2.864717e+03 	 2.472686e+04 	 1.323526e+09 	 9.769293e+21 	 5.209616e+07 	 1.073530e+39 	 7.019663e+38 	 2.629633e+22 	 1.683829e+09
1.20123983e+01 	 5.567724e-05 	 2.861706e+03 	 2.443994e+04 	 1.320746e+09 	 9.676671e+21 	 5.143889e+07 	 1.073502e+39 	 7.019544e+38 	 2.605942e+22 	 1.666472e+09
1.20125884e+01 	 5.632887e-05 	 2.858703e+03 	 2.415634e+04 	 1.317975e+09 	 9.585064e+21 	 5.079000e+07 	 1.073475e+39 	 7.019424e+38 	 2.582500e+22 	 1.649290e+09
1.20127786e+01 	 5.698812e-05 	 2.855707e+03 	 2.387604e+04 	 1.315214e+09 	 9.494460e+21 	 5.014937e+07 	 1.073448e+39 	 7.019303e+38 	 2.559303e+22 	 1.632282e+09
1.20129690e+01 	 5.765508e-05 	 2.852717e+03 	 2.359899e+04 	 1.312462e+09 	 9.404848e+21 	 4.951690e+07 	 1.073420e+39 	 7.019182e+38 	 2.536349e+22 	 1.615445e+09
1.20131595e+01 	 5.832985e-05 	 2.849735e+03 	 2.332516e+04 	 1.309719e+09 	 9.316215e+21 	 4.889248e+07 	 1.073393e+39 	 7.019061e+38 	 2.513635e+22 	 1.598778e+09
1.20133501e+01 	 5.901251e-05 	 2.846761e+03 	 2.305450e+04 	 1.306986e+09 	 9.228550e+21 	 4.827601e+07 	 1.073365e+39 	 7.018939e+38 	 2.491157e+22 	 1.582279e+09
1.20135409e+01 	 5.970317e-05 	 2.843793e+03 	 2.278698e+04 	 1.304263e+09 	 9.141842e+21 	 4.766738e+07 	 1.073337e+39 	 7.018816e+38 	 2.468914e+22 	 1.565947e+09
1.20137318e+01 	 6.040190e-05 	 2.840832e+03 	 2.252257e+04 	 1.301548e+09 	 9.056079e+21 	 4.706650e+07 	 1.073309e+39 	 7.018693e+38 	 2.446903e+22 	 1.549779e+09
1.20139229e+01 	 6.110881e-05 	 2.837879e+03 	 2.226123e+04 	 1.298844e+09 	 8.971251e+21 	 4.647326e+07 	 1.073281e+39 	 7.018569e+38 	 2.425121e+22 	 1.533775e+09
1.20141141e+01 	 6.182399e-05 	 2.834933e+03 	 2.200292e+04 	 1.296148e+09 	 8.887346e+21 	 4.588758e+07 	 1.073253e+39 	 7.018445e+38 	 2.403566e+22 	 1.517932e+09
1.20143055e+01 	 6.254754e-05 	 2.831994e+03 	 2.174760e+04 	 1.293462e+09 	 8.804353e+21 	 4.530934e+07 	 1.073225e+39 	 7.018320e+38 	 2.382235e+22 	 1.502250e+09
1.20144970e+01 	 6.327956e-05 	 2.829062e+03 	 2.149525e+04 	 1.290785e+09 	 8.722262e+21 	 4.473847e+07 	 1.073197e+39 	 7.018195e+38 	 2.361125e+22 	 1.486726e+09
1.20146886e+01 	 6.402014e-05 	 2.826137e+03 	 2.124583e+04 	 1.288117e+09 	 8.641063e+21 	 4.417485e+07 	 1.073169e+39 	 7.018069e+38 	 2.340234e+22 	 1.471358e+09
1.20148804e+01 	 6.476939e-05 	 2.823219e+03 	 2.099930e+04 	 1.285459e+09 	 8.560744e+21 	 4.361840e+07 	 1.073140e+39 	 7.017942e+38 	 2.319560e+22 	 1.456147e+09
1.20150724e+01 	 6.552740e-05 	 2.820308e+03 	 2.075563e+04 	 1.282810e+09 	 8.481296e+21 	 4.306903e+07 	 1.073112e+39 	 7.017815e+38 	 2.299100e+22 	 1.441089e+09
1.20152645e+01 	 6.629428e-05 	 2.817405e+03 	 2.051479e+04 	 1.280170e+09 	 8.402708e+21 	 4.252664e+07 	 1.073083e+39 	 7.017687e+38 	 2.278852e+22 	 1.426183e+09
1.20154568e+01 	 6.707014e-05 	 2.814508e+03 	 2.027674e+04 	 1.277539e+09 	 8.324971e+21 	 4.199115e+07 	 1.073054e+39 	 7.017559e+38 	 2.258813e+22 	 1.411428e+09
1.20156493e+01 	 6.785507e-05 	 2.811618e+03 	 2.004146e+04 	 1.274917e+09 	 8.248073e+21 	 4.146247e+07 	 1.073026e+39 	 7.017430e+38 	 2.238981e+22 	 1.396822e+09
1.20158419e+01 	 6.864919e-05 	 2.808736e+03 	 1.980890e+04 	 1.272304e+09 	 8.172006e+21 	 4.094050e+07 	 1.072997e+39 	 7.017301e+38 	 2.219353e+22 	 1.382364e+09
1.20160346e+01 	 6.945260e-05 	 2.805861e+03 	 1.957905e+04 	 1.269700e+09 	 8.096760e+21 	 4.042518e+07 	 1.072968e+39 	 7.017171e+38 	 2.199928e+22 	 1.368053e+09
1.20162276e+01 	 7.026541e-05 	 2.802992e+03 	 1.935186e+04 	 1.267106e+09 	 8.022325e+21 	 3.991640e+07 	 1.072939e+39 	 7.017041e+38 	 2.180703e+22 	 1.353887e+09
1.20164207e+01 	 7.108773e-05 	 2.800131e+03 	 1.912731e+04 	 1.264520e+09 	 7.948692e+21 	 3.941408e+07 	 1.072910e+39 	 7.016910e+38 	 2.161677e+22 	 1.339863e+09
1.20166140e+01 	 7.191967e-05 	 2.797276e+03 	 1.890536e+04 	 1.261943e+09 	 7.875851e+21 	 3.891815e+07 	 1.072880e+39 	 7.016778e+38 	 2.142845e+22 	 1.325982e+09
1.20168074e+01 	 7.276135e-05 	 2.794429e+03 	 1.868599e+04 	 1.259376e+09 	 7.803793e+21 	 3.842852e+07 	 1.072851e+39 	 7.016646e+38 	 2.124207e+22 	 1.312242e+09
1.20170010e+01 	 7.361287e-05 	 2.791589e+03 	 1.846916e+04 	 1.256817e+09 	 7.732509e+21 	 3.794511e+07 	 1.072821e+39 	 7.016513e+38 	 2.105761e+22 	 1.298641e+09
1.20171949e+01 	 7.447436e-05 	 2.788755e+03 	 1.825485e+04 	 1.254267e+09 	 7.661990e+21 	 3.746784e+07 	 1.072792e+39 	 7.016379e+38 	 2.087503e+22 	 1.285178e+09
1.20173888e+01 	 7.534592e-05 	 2.785929e+03 	 1.804303e+04 	 1.251726e+09 	 7.592228e+21 	 3.699663e+07 	 1.072762e+39 	 7.016245e+38 	 2.069433e+22 	 1.271851e+09
1.20175830e+01 	 7.622769e-05 	 2.783110e+03 	 1.783367e+04 	 1.249194e+09 	 7.523213e+21 	 3.653141e+07 	 1.072732e+39 	 7.016110e+38 	 2.051548e+22 	 1.258660e+09
1.20177774e+01 	 7.711976e-05 	 2.780297e+03 	 1.762673e+04 	 1.246670e+09 	 7.454936e+21 	 3.607209e+07 	 1.072703e+39 	 7.015975e+38 	 2.033846e+22 	 1.245602e+09
1.20179719e+01 	 7.802228e-05 	 2.777492e+03 	 1.742220e+04 	 1.244155e+09 	 7.387389e+21 	 3.561861e+07 	 1.072673e+39 	 7.015839e+38 	 2.016324e+22 	 1.232677e+09
1.20181666e+01 	 7.893536e-05 	 2.774693e+03 	 1.722004e+04 	 1.241650e+09 	 7.320564e+21 	 3.517088e+07 	 1.072642e+39 	 7.015702e+38 	 1.998981e+22 	 1.219883e+09
1.20183615e+01 	 7.985911e-05 	 2.771902e+03 	 1.702022e+04 	 1.239152e+09 	 7.254452e+21 	 3.472884e+07 	 1.072612e+39 	 7.015565e+38 	 1.981816e+22 	 1.207219e+09
1.20185567e+01 	 8.079368e-05 	 2.769117e+03 	 1.682272e+04 	 1.236664e+09 	 7.189045e+21 	 3.429240e+07 	 1.072582e+39 	 7.015427e+38 	 1.964825e+22 	 1.194683e+09
1.20187520e+01 	 8.173918e-05 	 2.766339e+03 	 1.662752e+04 	 1.234184e+09 	 7.124336e+21 	 3.386151e+07 	 1.072552e+39 	 7.015288e+38 	 1.948007e+22 	 1.182275e+09
1.20189475e+01 	 8.269574e-05 	 2.763568e+03 	 1.643458e+04 	 1.231713e+09 	 7.060315e+21 	 3.343608e+07 	 1.072521e+39 	 7.015149e+38 	 1.931360e+22 	 1.169993e+09
1.20191431e+01 	 8.366350e-05 	 2.760804e+03 	 1.624388e+04 	 1.229250e+09 	 6.996975e+21 	 3.301605e+07 	 1.072490e+39 	 7.015009e+38 	 1.914883e+22 	 1.157836e+09
1.20193390e+01 	 8.464257e-05 	 2.758047e+03 	 1.605539e+04 	 1.226797e+09 	 6.934307e+21 	 3.260135e+07 	 1.072460e+39 	 7.014868e+38 	 1.898573e+22 	 1.145802e+09
1.20195351e+01 	 8.563310e-05 	 2.755297e+03 	 1.586909e+04 	 1.224351e+09 	 6.872305e+21 	 3.219191e+07 	 1.072429e+39 	 7.014727e+38 	 1.882428e+22 	 1.133891e+09
1.20197315e+01 	 8.663522e-05 	 2.752554e+03 	 1.568495e+04 	 1.221914e+09 	 6.810960e+21 	 3.178766e+07 	 1.072398e+39 	 7.014585e+38 	 1.866446e+22 	 1.122100e+09
1.20199280e+01 	 8.764906e-05 	 2.749818e+03 	 1.550295e+04 	 1.219486e+09 	 6.750264e+21 	 3.138854e+07 	 1.072367e+39 	 7.014442e+38 	 1.850627e+22 	 1.110430e+09
1.20201247e+01 	 8.867476e-05 	 2.747088e+03 	 1.532306e+04 	 1.217066e+09 	 6.690211e+21 	 3.099448e+07 	 1.072336e+39 	 7.014299e+38 	 1.834967e+22 	 1.098878e+09
1.20203217e+01 	 8.971247e-05 	 2.744365e+03 	 1.514525e+04 	 1.214655e+09 	 6.630793e+21 	 3.060541e+07 	 1.072304e+39 	 7.014155e+38 	 1.819465e+22 	 1.087444e+09
1.20205188e+01 	 9.076231e-05 	 2.741649e+03 	 1.496951e+04 	 1.212252e+09 	 6.572002e+21 	 3.022128e+07 	 1.072273e+39 	 7.014010e+38 	 1.804120e+22 	 1.076127e+09
1.20207162e+01 	 9.182443e-05 	 2.738940e+03 	 1.479581e+04 	 1.209857e+09 	 6.513832e+21 	 2.984202e+07 	 1.072241e+39 	 7.013865e+38 	 1.788930e+22 	 1.064924e+09
1.20209138e+01 	 9.289898e-05 	 2.736238e+03 	 1.462413e+04 	 1.207471e+09 	 6.456275e+21 	 2.946757e+07 	 1.072210e+39 	 7.013718e+38 	 1.773893e+22 	 1.053836e+09
1.20211116e+01 	 9.398610e-05 	 2.733543e+03 	 1.445443e+04 	 1.205094e+09 	 6.399325e+21 	 2.909786e+07 	 1.072178e+39 	 7.013571e+38 	 1.759007e+22 	 1.042860e+09
1.20213096e+01 	 9.508594e-05 	 2.730854e+03 	 1.428671e+04 	 1.202724e+09 	 6.342973e+21 	 2.873284e+07 	 1.072146e+39 	 7.013424e+38 	 1.744271e+22 	 1.031997e+09
1.20215079e+01 	 9.619865e-05 	 2.728172e+03 	 1.412093e+04 	 1.200363e+09 	 6.287215e+21 	 2.837244e+07 	 1.072114e+39 	 7.013276e+38 	 1.729683e+22 	 1.021244e+09
1.20217064e+01 	 9.732437e-05 	 2.725497e+03 	 1.395708e+04 	 1.198010e+09 	 6.232041e+21 	 2.801661e+07 	 1.072082e+39 	 7.013126e+38 	 1.715241e+22 	 1.010601e+09
1.20219051e+01 	 9.846326e-05 	 2.722829e+03 	 1.379512e+04 	 1.195666e+09 	 6.177447e+21 	 2.766528e+07 	 1.072049e+39 	 7.012977e+38 	 1.700945e+22 	 1.000066e+09
1.20221041e+01 	 9.961547e-05 	 2.720167e+03 	 1.363505e+04 	 1.193329e+09 	 6.123425e+21 	 2.731841e+07 	 1.072017e+39 	 7.012826e+38 	 1.686791e+22 	 9.896386e+08
1.20223033e+01 	 1.007812e-04 	 2.717512e+03 	 1.347683e+04 	 1.191001e+09 	 6.069968e+21 	 2.697593e+07 	 1.071985e+39 	 7.012675e+38 	 1.672779e+22 	 9.793176e+08
1.20225027e+01 	 1.019605e-04 	 2.714864e+03 	 1.332045e+04 	 1.188681e+09 	 6.017071e+21 	 2.663778e+07 	 1.071952e+39 	 7.012523e+38 	 1.658907e+22 	 9.691020e+08
1.20227023e+01 	 1.031536e-04 	 2.712223e+03 	 1.316589e+04 	 1.186369e+09 	 5.964727e+21 	 2.630392e+07 	 1.071919e+39 	 7.012370e+38 	 1.645174e+22 	 9.589906e+08
1.20229022e+01 	 1.043607e-04 	 2.709588e+03 	 1.301311e+04 	 1.184066e+09 	 5.912929e+21 	 2.597429e+07 	 1.071886e+39 	 7.012216e+38 	 1.631577e+22 	 9.489824e+08
1.20231024e+01 	 1.055819e-04 	 2.706961e+03 	 1.286211e+04 	 1.181770e+09 	 5.861672e+21 	 2.564882e+07 	 1.071853e+39 	 7.012062e+38 	 1.618117e+22 	 9.390764e+08
1.20233028e+01 	 1.068174e-04 	 2.704339e+03 	 1.271287e+04 	 1.179482e+09 	 5.810948e+21 	 2.532748e+07 	 1.071820e+39 	 7.011907e+38 	 1.604790e+22 	 9.292716e+08
1.20235035e+01 	 1.080673e-04 	 2.701725e+03 	 1.256535e+04 	 1.177203e+09 	 5.760753e+21 	 2.501021e+07 	 1.071787e+39 	 7.011751e+38 	 1.591596e+22 	 9.195670e+08
1.20237043e+01 	 1.093319e-04 	 2.699117e+03 	 1.241955e+04 	 1.174931e+09 	 5.711079e+21 	 2.469694e+07 	 1.071753e+39 	 7.011594e+38 	 1.578533e+22 	 9.099615e+08
1.20239055e+01 	 1.106112e-04 	 2.696516e+03 	 1.227543e+04 	 1.172668e+09 	 5.661922e+21 	 2.438765e+07 	 1.071720e+39 	 7.011437e+38 	 1.565599e+22 	 9.004542e+08
1.20241069e+01 	 1.119056e-04 	 2.693921e+03 	 1.213299e+04 	 1.170413e+09 	 5.613275e+21 	 2.408226e+07 	 1.071686e+39 	 7.011278e+38 	 1.552794e+22 	 8.910441e+08
1.20243086e+01 	 1.132150e-04 	 2.691334e+03 	 1.199221e+04 	 1.168165e+09 	 5.565133e+21 	 2.378074e+07 	 1.071652e+39 	 7.011119e+38 	 1.540116e+22 	 8.817302e+08
1.20245105e+01 	 1.145398e-04 	 2.688753e+03 	 1.185305e+04 	 1.165925e+09 	 5.517488e+21 	 2.348304e+07 	 1.071618e+39 	 7.010959e+38 	 1.527564e+22 	 8.725115e+08
1.20247127e+01 	 1.158801e-04 	 2.686178e+03 	 1.171552e+04 	 1.163694e+09 	 5.470337e+21 	 2.318909e+07 	 1.071584e+39 	 7.010798e+38 	 1.515135e+22 	 8.633872e+08
1.20249152e+01 	 1.172360e-04 	 2.683610e+03 	 1.157957e+04 	 1.161470e+09 	 5.423673e+21 	 2.289887e+07 	 1.071550e+39 	 7.010637e+38 	 1.502830e+22 	 8.543563e+08
1.20251179e+01 	 1.186078e-04 	 2.681049e+03 	 1.144521e+04 	 1.159254e+09 	 5.377492e+21 	 2.261232e+07 	 1.071516e+39 	 7.010474e+38 	 1.490645e+22 	 8.454178e+08
1.20253209e+01 	 1.199957e-04 	 2.678494e+03 	 1.131240e+04 	 1.157046e+09 	 5.331787e+21 	 2.232938e+07 	 1.071481e+39 	 7.010311e+38 	 1.478581e+22 	 8.365708e+08
1.20255242e+01 	 1.213998e-04 	 2.675946e+03 	 1.118114e+04 	 1.154845e+09 	 5.286552e+21 	 2.205003e+07 	 1.071446e+39 	 7.010147e+38 	 1.466636e+22 	 8.278143e+08
1.20257277e+01 	 1.228203e-04 	 2.673405e+03 	 1.105139e+04 	 1.152653e+09 	 5.241783e+21 	 2.177420e+07 	 1.071412e+39 	 7.009982e+38 	 1.454808e+22 	 8.191476e+08
