r (km)        	 u (km/s)    	 cs (km/s)   	 rho (g/cm3) 	 T (K)       	 P (dyne/cm2) 	 phi         	 L (erg/s)   	 L* (erg/s)  	 E (erg)     	 tau        
1.20077546e+01 	 2.054868e-05 	 1.696078e+03 	 7.436595e+04 	 1.391816e+09 	 1.589972e+22 	 8.253752e+07 	 1.139678e+39 	 7.450737e+38 	 3.826950e+22 	 4.905486e+09
1.20078226e+01 	 2.078089e-05 	 1.694464e+03 	 7.353402e+04 	 1.389169e+09 	 1.574363e+22 	 8.153758e+07 	 1.139667e+39 	 7.450687e+38 	 3.792315e+22 	 4.856399e+09
1.20078906e+01 	 2.101573e-05 	 1.692855e+03 	 7.271140e+04 	 1.386531e+09 	 1.558932e+22 	 8.054987e+07 	 1.139656e+39 	 7.450637e+38 	 3.758053e+22 	 4.807790e+09
1.20079588e+01 	 2.125322e-05 	 1.691249e+03 	 7.189798e+04 	 1.383902e+09 	 1.543677e+22 	 7.957424e+07 	 1.139645e+39 	 7.450587e+38 	 3.724162e+22 	 4.759658e+09
1.20080270e+01 	 2.149339e-05 	 1.689647e+03 	 7.109366e+04 	 1.381283e+09 	 1.528596e+22 	 7.861055e+07 	 1.139634e+39 	 7.450536e+38 	 3.690637e+22 	 4.711995e+09
1.20080952e+01 	 2.173628e-05 	 1.688050e+03 	 7.029833e+04 	 1.378672e+09 	 1.513687e+22 	 7.765865e+07 	 1.139623e+39 	 7.450485e+38 	 3.657473e+22 	 4.664799e+09
1.20081636e+01 	 2.198191e-05 	 1.686457e+03 	 6.951191e+04 	 1.376070e+09 	 1.498946e+22 	 7.671839e+07 	 1.139611e+39 	 7.450434e+38 	 3.624666e+22 	 4.618065e+09
1.20082320e+01 	 2.223031e-05 	 1.684867e+03 	 6.873428e+04 	 1.373478e+09 	 1.484374e+22 	 7.578963e+07 	 1.139600e+39 	 7.450382e+38 	 3.592212e+22 	 4.571788e+09
1.20083004e+01 	 2.248153e-05 	 1.683282e+03 	 6.796535e+04 	 1.370894e+09 	 1.469966e+22 	 7.487222e+07 	 1.139589e+39 	 7.450330e+38 	 3.560106e+22 	 4.525964e+09
1.20083690e+01 	 2.273558e-05 	 1.681700e+03 	 6.720502e+04 	 1.368320e+09 	 1.455722e+22 	 7.396603e+07 	 1.139577e+39 	 7.450278e+38 	 3.528346e+22 	 4.480588e+09
1.20084376e+01 	 2.299250e-05 	 1.680123e+03 	 6.645320e+04 	 1.365754e+09 	 1.441639e+22 	 7.307092e+07 	 1.139566e+39 	 7.450225e+38 	 3.496926e+22 	 4.435657e+09
1.20085062e+01 	 2.325233e-05 	 1.678550e+03 	 6.570979e+04 	 1.363197e+09 	 1.427716e+22 	 7.218675e+07 	 1.139554e+39 	 7.450172e+38 	 3.465843e+22 	 4.391166e+09
1.20085750e+01 	 2.351509e-05 	 1.676980e+03 	 6.497469e+04 	 1.360649e+09 	 1.413950e+22 	 7.131339e+07 	 1.139543e+39 	 7.450119e+38 	 3.435093e+22 	 4.347111e+09
1.20086438e+01 	 2.378082e-05 	 1.675415e+03 	 6.424782e+04 	 1.358110e+09 	 1.400340e+22 	 7.045071e+07 	 1.139531e+39 	 7.450066e+38 	 3.404672e+22 	 4.303487e+09
1.20087126e+01 	 2.404955e-05 	 1.673854e+03 	 6.352908e+04 	 1.355580e+09 	 1.386883e+22 	 6.959857e+07 	 1.139519e+39 	 7.450012e+38 	 3.374576e+22 	 4.260291e+09
1.20087816e+01 	 2.432132e-05 	 1.672296e+03 	 6.281838e+04 	 1.353059e+09 	 1.373579e+22 	 6.875683e+07 	 1.139508e+39 	 7.449958e+38 	 3.344801e+22 	 4.217518e+09
1.20088506e+01 	 2.459616e-05 	 1.670743e+03 	 6.211564e+04 	 1.350546e+09 	 1.360424e+22 	 6.792539e+07 	 1.139496e+39 	 7.449903e+38 	 3.315344e+22 	 4.175165e+09
1.20089197e+01 	 2.487411e-05 	 1.669193e+03 	 6.142075e+04 	 1.348043e+09 	 1.347418e+22 	 6.710410e+07 	 1.139484e+39 	 7.449849e+38 	 3.286200e+22 	 4.133228e+09
1.20089888e+01 	 2.515519e-05 	 1.667648e+03 	 6.073364e+04 	 1.345548e+09 	 1.334557e+22 	 6.629284e+07 	 1.139472e+39 	 7.449794e+38 	 3.257367e+22 	 4.091701e+09
1.20090581e+01 	 2.543946e-05 	 1.666107e+03 	 6.005421e+04 	 1.343062e+09 	 1.321842e+22 	 6.549149e+07 	 1.139460e+39 	 7.449738e+38 	 3.228840e+22 	 4.050583e+09
1.20091274e+01 	 2.572693e-05 	 1.664569e+03 	 5.938238e+04 	 1.340584e+09 	 1.309269e+22 	 6.469993e+07 	 1.139448e+39 	 7.449682e+38 	 3.200616e+22 	 4.009868e+09
1.20091968e+01 	 2.601765e-05 	 1.663036e+03 	 5.871807e+04 	 1.338115e+09 	 1.296838e+22 	 6.391803e+07 	 1.139436e+39 	 7.449626e+38 	 3.172692e+22 	 3.969552e+09
1.20092662e+01 	 2.631166e-05 	 1.661506e+03 	 5.806120e+04 	 1.335655e+09 	 1.284546e+22 	 6.314568e+07 	 1.139424e+39 	 7.449570e+38 	 3.145063e+22 	 3.929633e+09
1.20093358e+01 	 2.660899e-05 	 1.659981e+03 	 5.741167e+04 	 1.333203e+09 	 1.272391e+22 	 6.238276e+07 	 1.139412e+39 	 7.449513e+38 	 3.117728e+22 	 3.890106e+09
1.20094054e+01 	 2.690968e-05 	 1.658459e+03 	 5.676940e+04 	 1.330760e+09 	 1.260373e+22 	 6.162916e+07 	 1.139400e+39 	 7.449456e+38 	 3.090681e+22 	 3.850967e+09
1.20094751e+01 	 2.721377e-05 	 1.656941e+03 	 5.613432e+04 	 1.328326e+09 	 1.248489e+22 	 6.088475e+07 	 1.139387e+39 	 7.449399e+38 	 3.063920e+22 	 3.812212e+09
1.20095449e+01 	 2.752129e-05 	 1.655428e+03 	 5.550635e+04 	 1.325900e+09 	 1.236739e+22 	 6.014943e+07 	 1.139375e+39 	 7.449341e+38 	 3.037442e+22 	 3.773839e+09
1.20096147e+01 	 2.783228e-05 	 1.653918e+03 	 5.488540e+04 	 1.323482e+09 	 1.225119e+22 	 5.942308e+07 	 1.139363e+39 	 7.449283e+38 	 3.011243e+22 	 3.735843e+09
1.20096847e+01 	 2.814680e-05 	 1.652412e+03 	 5.427140e+04 	 1.321074e+09 	 1.213629e+22 	 5.870559e+07 	 1.139350e+39 	 7.449225e+38 	 2.985320e+22 	 3.698220e+09
1.20097547e+01 	 2.846486e-05 	 1.650910e+03 	 5.366427e+04 	 1.318673e+09 	 1.202267e+22 	 5.799686e+07 	 1.139338e+39 	 7.449166e+38 	 2.959670e+22 	 3.660968e+09
1.20098248e+01 	 2.878652e-05 	 1.649412e+03 	 5.306392e+04 	 1.316281e+09 	 1.191032e+22 	 5.729677e+07 	 1.139325e+39 	 7.449107e+38 	 2.934289e+22 	 3.624082e+09
1.20098950e+01 	 2.911181e-05 	 1.647918e+03 	 5.247030e+04 	 1.313898e+09 	 1.179921e+22 	 5.660523e+07 	 1.139312e+39 	 7.449048e+38 	 2.909175e+22 	 3.587559e+09
1.20099652e+01 	 2.944078e-05 	 1.646428e+03 	 5.188331e+04 	 1.311522e+09 	 1.168935e+22 	 5.592211e+07 	 1.139300e+39 	 7.448988e+38 	 2.884325e+22 	 3.551396e+09
1.20100356e+01 	 2.977346e-05 	 1.644942e+03 	 5.130290e+04 	 1.309156e+09 	 1.158070e+22 	 5.524733e+07 	 1.139287e+39 	 7.448928e+38 	 2.859735e+22 	 3.515589e+09
1.20101060e+01 	 3.010991e-05 	 1.643459e+03 	 5.072897e+04 	 1.306797e+09 	 1.147326e+22 	 5.458078e+07 	 1.139274e+39 	 7.448867e+38 	 2.835402e+22 	 3.480135e+09
1.20101766e+01 	 3.045015e-05 	 1.641981e+03 	 5.016147e+04 	 1.304447e+09 	 1.136701e+22 	 5.392235e+07 	 1.139261e+39 	 7.448806e+38 	 2.811324e+22 	 3.445030e+09
1.20102472e+01 	 3.079424e-05 	 1.640506e+03 	 4.960031e+04 	 1.302105e+09 	 1.126194e+22 	 5.327196e+07 	 1.139248e+39 	 7.448745e+38 	 2.787498e+22 	 3.410270e+09
1.20103179e+01 	 3.114222e-05 	 1.639036e+03 	 4.904543e+04 	 1.299772e+09 	 1.115803e+22 	 5.262949e+07 	 1.139235e+39 	 7.448683e+38 	 2.763920e+22 	 3.375853e+09
1.20103887e+01 	 3.149413e-05 	 1.637569e+03 	 4.849676e+04 	 1.297447e+09 	 1.105527e+22 	 5.199485e+07 	 1.139222e+39 	 7.448621e+38 	 2.740588e+22 	 3.341776e+09
1.20104595e+01 	 3.185001e-05 	 1.636106e+03 	 4.795423e+04 	 1.295130e+09 	 1.095365e+22 	 5.136794e+07 	 1.139209e+39 	 7.448559e+38 	 2.717499e+22 	 3.308035e+09
1.20105305e+01 	 3.220992e-05 	 1.634647e+03 	 4.741777e+04 	 1.292821e+09 	 1.085314e+22 	 5.074867e+07 	 1.139196e+39 	 7.448496e+38 	 2.694650e+22 	 3.274626e+09
1.20106016e+01 	 3.257389e-05 	 1.633192e+03 	 4.688731e+04 	 1.290520e+09 	 1.075375e+22 	 5.013695e+07 	 1.139183e+39 	 7.448433e+38 	 2.672039e+22 	 3.241547e+09
1.20106727e+01 	 3.294197e-05 	 1.631741e+03 	 4.636278e+04 	 1.288228e+09 	 1.065545e+22 	 4.953269e+07 	 1.139170e+39 	 7.448370e+38 	 2.649662e+22 	 3.208795e+09
1.20107440e+01 	 3.331422e-05 	 1.630293e+03 	 4.584412e+04 	 1.285943e+09 	 1.055824e+22 	 4.893578e+07 	 1.139156e+39 	 7.448306e+38 	 2.627518e+22 	 3.176366e+09
1.20108153e+01 	 3.369067e-05 	 1.628850e+03 	 4.533126e+04 	 1.283667e+09 	 1.046210e+22 	 4.834614e+07 	 1.139143e+39 	 7.448242e+38 	 2.605604e+22 	 3.144257e+09
1.20108867e+01 	 3.407137e-05 	 1.627410e+03 	 4.482414e+04 	 1.281399e+09 	 1.036701e+22 	 4.776369e+07 	 1.139129e+39 	 7.448177e+38 	 2.583916e+22 	 3.112465e+09
1.20109583e+01 	 3.445637e-05 	 1.625974e+03 	 4.432269e+04 	 1.279139e+09 	 1.027296e+22 	 4.718833e+07 	 1.139116e+39 	 7.448112e+38 	 2.562452e+22 	 3.080987e+09
1.20110299e+01 	 3.484572e-05 	 1.624542e+03 	 4.382686e+04 	 1.276887e+09 	 1.017995e+22 	 4.661997e+07 	 1.139102e+39 	 7.448047e+38 	 2.541211e+22 	 3.049820e+09
1.20111016e+01 	 3.523948e-05 	 1.623114e+03 	 4.333657e+04 	 1.274643e+09 	 1.008796e+22 	 4.605853e+07 	 1.139089e+39 	 7.447981e+38 	 2.520188e+22 	 3.018961e+09
1.20111734e+01 	 3.563768e-05 	 1.621690e+03 	 4.285176e+04 	 1.272407e+09 	 9.996975e+21 	 4.550393e+07 	 1.139075e+39 	 7.447915e+38 	 2.499382e+22 	 2.988407e+09
1.20112453e+01 	 3.604038e-05 	 1.620270e+03 	 4.237238e+04 	 1.270179e+09 	 9.906987e+21 	 4.495608e+07 	 1.139061e+39 	 7.447848e+38 	 2.478790e+22 	 2.958155e+09
1.20113173e+01 	 3.644763e-05 	 1.618853e+03 	 4.189836e+04 	 1.267959e+09 	 9.817981e+21 	 4.441490e+07 	 1.139047e+39 	 7.447781e+38 	 2.458411e+22 	 2.928203e+09
1.20113895e+01 	 3.685948e-05 	 1.617440e+03 	 4.142964e+04 	 1.265747e+09 	 9.729947e+21 	 4.388030e+07 	 1.139033e+39 	 7.447714e+38 	 2.438240e+22 	 2.898546e+09
1.20114617e+01 	 3.727598e-05 	 1.616031e+03 	 4.096617e+04 	 1.263543e+09 	 9.642874e+21 	 4.335221e+07 	 1.139019e+39 	 7.447646e+38 	 2.418276e+22 	 2.869184e+09
1.20115340e+01 	 3.769719e-05 	 1.614626e+03 	 4.050788e+04 	 1.261346e+09 	 9.556751e+21 	 4.283054e+07 	 1.139005e+39 	 7.447577e+38 	 2.398518e+22 	 2.840111e+09
1.20116064e+01 	 3.812316e-05 	 1.613225e+03 	 4.005472e+04 	 1.259158e+09 	 9.471565e+21 	 4.231521e+07 	 1.138991e+39 	 7.447509e+38 	 2.378961e+22 	 2.811327e+09
1.20116789e+01 	 3.855394e-05 	 1.611827e+03 	 3.960663e+04 	 1.256977e+09 	 9.387306e+21 	 4.180616e+07 	 1.138977e+39 	 7.447440e+38 	 2.359605e+22 	 2.782828e+09
1.20117515e+01 	 3.898959e-05 	 1.610433e+03 	 3.916355e+04 	 1.254804e+09 	 9.303963e+21 	 4.130330e+07 	 1.138963e+39 	 7.447370e+38 	 2.340446e+22 	 2.754611e+09
1.20118243e+01 	 3.943016e-05 	 1.609043e+03 	 3.872543e+04 	 1.252639e+09 	 9.221524e+21 	 4.080655e+07 	 1.138948e+39 	 7.447300e+38 	 2.321483e+22 	 2.726673e+09
1.20118971e+01 	 3.987571e-05 	 1.607657e+03 	 3.829221e+04 	 1.250482e+09 	 9.139980e+21 	 4.031584e+07 	 1.138934e+39 	 7.447230e+38 	 2.302713e+22 	 2.699013e+09
1.20119701e+01 	 4.032629e-05 	 1.606275e+03 	 3.786383e+04 	 1.248332e+09 	 9.059320e+21 	 3.983110e+07 	 1.138919e+39 	 7.447159e+38 	 2.284135e+22 	 2.671626e+09
1.20120431e+01 	 4.078196e-05 	 1.604896e+03 	 3.744025e+04 	 1.246190e+09 	 8.979534e+21 	 3.935225e+07 	 1.138905e+39 	 7.447088e+38 	 2.265745e+22 	 2.644511e+09
1.20121163e+01 	 4.124278e-05 	 1.603521e+03 	 3.702141e+04 	 1.244056e+09 	 8.900611e+21 	 3.887922e+07 	 1.138890e+39 	 7.447016e+38 	 2.247543e+22 	 2.617665e+09
1.20121895e+01 	 4.170881e-05 	 1.602150e+03 	 3.660725e+04 	 1.241929e+09 	 8.822540e+21 	 3.841194e+07 	 1.138875e+39 	 7.446944e+38 	 2.229525e+22 	 2.591086e+09
1.20122629e+01 	 4.218010e-05 	 1.600783e+03 	 3.619773e+04 	 1.239810e+09 	 8.745312e+21 	 3.795033e+07 	 1.138861e+39 	 7.446871e+38 	 2.211690e+22 	 2.564770e+09
1.20123364e+01 	 4.265671e-05 	 1.599419e+03 	 3.579278e+04 	 1.237699e+09 	 8.668917e+21 	 3.749434e+07 	 1.138846e+39 	 7.446798e+38 	 2.194035e+22 	 2.538715e+09
1.20124100e+01 	 4.313871e-05 	 1.598060e+03 	 3.539237e+04 	 1.235595e+09 	 8.593345e+21 	 3.704389e+07 	 1.138831e+39 	 7.446725e+38 	 2.176559e+22 	 2.512919e+09
1.20124838e+01 	 4.362616e-05 	 1.596704e+03 	 3.499643e+04 	 1.233499e+09 	 8.518587e+21 	 3.659890e+07 	 1.138816e+39 	 7.446651e+38 	 2.159260e+22 	 2.487379e+09
1.20125576e+01 	 4.411911e-05 	 1.595351e+03 	 3.460493e+04 	 1.231411e+09 	 8.444634e+21 	 3.615933e+07 	 1.138801e+39 	 7.446576e+38 	 2.142136e+22 	 2.462092e+09
1.20126315e+01 	 4.461763e-05 	 1.594003e+03 	 3.421780e+04 	 1.229330e+09 	 8.371475e+21 	 3.572509e+07 	 1.138786e+39 	 7.446501e+38 	 2.125184e+22 	 2.437057e+09
1.20127056e+01 	 4.512179e-05 	 1.592658e+03 	 3.383501e+04 	 1.227256e+09 	 8.299100e+21 	 3.529612e+07 	 1.138770e+39 	 7.446426e+38 	 2.108403e+22 	 2.412271e+09
1.20127798e+01 	 4.563164e-05 	 1.591317e+03 	 3.345650e+04 	 1.225190e+09 	 8.227501e+21 	 3.487236e+07 	 1.138755e+39 	 7.446350e+38 	 2.091790e+22 	 2.387731e+09
1.20128541e+01 	 4.614725e-05 	 1.589979e+03 	 3.308222e+04 	 1.223132e+09 	 8.156669e+21 	 3.445375e+07 	 1.138740e+39 	 7.446274e+38 	 2.075345e+22 	 2.363435e+09
1.20129285e+01 	 4.666868e-05 	 1.588645e+03 	 3.271213e+04 	 1.221080e+09 	 8.086595e+21 	 3.404021e+07 	 1.138724e+39 	 7.446197e+38 	 2.059065e+22 	 2.339381e+09
1.20130031e+01 	 4.719601e-05 	 1.587315e+03 	 3.234618e+04 	 1.219037e+09 	 8.017271e+21 	 3.363170e+07 	 1.138709e+39 	 7.446120e+38 	 2.042948e+22 	 2.315566e+09
1.20130777e+01 	 4.772929e-05 	 1.585989e+03 	 3.198432e+04 	 1.217000e+09 	 7.948687e+21 	 3.322814e+07 	 1.138693e+39 	 7.446042e+38 	 2.026992e+22 	 2.291988e+09
1.20131525e+01 	 4.826860e-05 	 1.584666e+03 	 3.162652e+04 	 1.214971e+09 	 7.880836e+21 	 3.282948e+07 	 1.138677e+39 	 7.445964e+38 	 2.011197e+22 	 2.268644e+09
1.20132274e+01 	 4.881399e-05 	 1.583347e+03 	 3.127271e+04 	 1.212950e+09 	 7.813707e+21 	 3.243566e+07 	 1.138661e+39 	 7.445885e+38 	 1.995559e+22 	 2.245533e+09
1.20133024e+01 	 4.936556e-05 	 1.582032e+03 	 3.092286e+04 	 1.210935e+09 	 7.747293e+21 	 3.204662e+07 	 1.138646e+39 	 7.445805e+38 	 1.980077e+22 	 2.222652e+09
1.20133776e+01 	 4.992335e-05 	 1.580721e+03 	 3.057693e+04 	 1.208928e+09 	 7.681586e+21 	 3.166229e+07 	 1.138630e+39 	 7.445726e+38 	 1.964750e+22 	 2.199999e+09
1.20134529e+01 	 5.048744e-05 	 1.579413e+03 	 3.023487e+04 	 1.206929e+09 	 7.616577e+21 	 3.128263e+07 	 1.138614e+39 	 7.445645e+38 	 1.949576e+22 	 2.177572e+09
1.20135283e+01 	 5.105791e-05 	 1.578108e+03 	 2.989663e+04 	 1.204936e+09 	 7.552258e+21 	 3.090757e+07 	 1.138597e+39 	 7.445565e+38 	 1.934552e+22 	 2.155368e+09
1.20136038e+01 	 5.163482e-05 	 1.576808e+03 	 2.956218e+04 	 1.202951e+09 	 7.488621e+21 	 3.053705e+07 	 1.138581e+39 	 7.445483e+38 	 1.919678e+22 	 2.133385e+09
1.20136795e+01 	 5.221825e-05 	 1.575511e+03 	 2.923146e+04 	 1.200973e+09 	 7.425658e+21 	 3.017103e+07 	 1.138565e+39 	 7.445401e+38 	 1.904951e+22 	 2.111622e+09
1.20137553e+01 	 5.280827e-05 	 1.574218e+03 	 2.890445e+04 	 1.199002e+09 	 7.363361e+21 	 2.980945e+07 	 1.138548e+39 	 7.445319e+38 	 1.890370e+22 	 2.090075e+09
1.20138312e+01 	 5.340495e-05 	 1.572928e+03 	 2.858110e+04 	 1.197038e+09 	 7.301722e+21 	 2.945224e+07 	 1.138532e+39 	 7.445236e+38 	 1.875934e+22 	 2.068744e+09
1.20139072e+01 	 5.400838e-05 	 1.571642e+03 	 2.826136e+04 	 1.195082e+09 	 7.240735e+21 	 2.909937e+07 	 1.138515e+39 	 7.445153e+38 	 1.861641e+22 	 2.047625e+09
1.20139834e+01 	 5.461862e-05 	 1.570360e+03 	 2.794520e+04 	 1.193133e+09 	 7.180391e+21 	 2.875077e+07 	 1.138499e+39 	 7.445069e+38 	 1.847488e+22 	 2.026717e+09
1.20140597e+01 	 5.523576e-05 	 1.569081e+03 	 2.763258e+04 	 1.191190e+09 	 7.120683e+21 	 2.840640e+07 	 1.138482e+39 	 7.444984e+38 	 1.833476e+22 	 2.006018e+09
1.20141362e+01 	 5.585986e-05 	 1.567806e+03 	 2.732346e+04 	 1.189255e+09 	 7.061604e+21 	 2.806620e+07 	 1.138465e+39 	 7.444899e+38 	 1.819602e+22 	 1.985526e+09
1.20142128e+01 	 5.649102e-05 	 1.566534e+03 	 2.701779e+04 	 1.187327e+09 	 7.003145e+21 	 2.773011e+07 	 1.138448e+39 	 7.444814e+38 	 1.805864e+22 	 1.965238e+09
1.20142895e+01 	 5.712931e-05 	 1.565267e+03 	 2.671554e+04 	 1.185406e+09 	 6.945300e+21 	 2.739810e+07 	 1.138431e+39 	 7.444728e+38 	 1.792261e+22 	 1.945153e+09
1.20143664e+01 	 5.777481e-05 	 1.564002e+03 	 2.641667e+04 	 1.183491e+09 	 6.888063e+21 	 2.707011e+07 	 1.138414e+39 	 7.444641e+38 	 1.778792e+22 	 1.925268e+09
1.20144434e+01 	 5.842760e-05 	 1.562742e+03 	 2.612115e+04 	 1.181584e+09 	 6.831425e+21 	 2.674609e+07 	 1.138397e+39 	 7.444554e+38 	 1.765455e+22 	 1.905583e+09
1.20145205e+01 	 5.908776e-05 	 1.561485e+03 	 2.582893e+04 	 1.179684e+09 	 6.775381e+21 	 2.642599e+07 	 1.138380e+39 	 7.444466e+38 	 1.752249e+22 	 1.886094e+09
1.20145978e+01 	 5.975538e-05 	 1.560231e+03 	 2.553999e+04 	 1.177791e+09 	 6.719923e+21 	 2.610977e+07 	 1.138362e+39 	 7.444377e+38 	 1.739172e+22 	 1.866800e+09
1.20146752e+01 	 6.043055e-05 	 1.558981e+03 	 2.525427e+04 	 1.175905e+09 	 6.665044e+21 	 2.579738e+07 	 1.138345e+39 	 7.444289e+38 	 1.726223e+22 	 1.847699e+09
1.20147528e+01 	 6.111334e-05 	 1.557735e+03 	 2.497175e+04 	 1.174025e+09 	 6.610738e+21 	 2.548876e+07 	 1.138327e+39 	 7.444199e+38 	 1.713400e+22 	 1.828789e+09
1.20148305e+01 	 6.180384e-05 	 1.556492e+03 	 2.469239e+04 	 1.172153e+09 	 6.556997e+21 	 2.518388e+07 	 1.138309e+39 	 7.444109e+38 	 1.700702e+22 	 1.810069e+09
1.20149084e+01 	 6.250214e-05 	 1.555253e+03 	 2.441616e+04 	 1.170287e+09 	 6.503817e+21 	 2.488269e+07 	 1.138292e+39 	 7.444018e+38 	 1.688128e+22 	 1.791535e+09
1.20149864e+01 	 6.320834e-05 	 1.554017e+03 	 2.414302e+04 	 1.168428e+09 	 6.451190e+21 	 2.458514e+07 	 1.138274e+39 	 7.443927e+38 	 1.675677e+22 	 1.773188e+09
1.20150646e+01 	 6.392251e-05 	 1.552785e+03 	 2.387293e+04 	 1.166576e+09 	 6.399110e+21 	 2.429119e+07 	 1.138256e+39 	 7.443835e+38 	 1.663346e+22 	 1.755024e+09
1.20151429e+01 	 6.464474e-05 	 1.551556e+03 	 2.360586e+04 	 1.164731e+09 	 6.347570e+21 	 2.400080e+07 	 1.138238e+39 	 7.443742e+38 	 1.651135e+22 	 1.737042e+09
1.20152213e+01 	 6.537514e-05 	 1.550331e+03 	 2.334178e+04 	 1.162892e+09 	 6.296565e+21 	 2.371391e+07 	 1.138220e+39 	 7.443649e+38 	 1.639043e+22 	 1.719240e+09
1.20153000e+01 	 6.611378e-05 	 1.549110e+03 	 2.308066e+04 	 1.161060e+09 	 6.246087e+21 	 2.343050e+07 	 1.138201e+39 	 7.443555e+38 	 1.627067e+22 	 1.701617e+09
1.20153787e+01 	 6.686077e-05 	 1.547892e+03 	 2.282246e+04 	 1.159235e+09 	 6.196131e+21 	 2.315051e+07 	 1.138183e+39 	 7.443461e+38 	 1.615207e+22 	 1.684171e+09
1.20154577e+01 	 6.761620e-05 	 1.546677e+03 	 2.256714e+04 	 1.157417e+09 	 6.146692e+21 	 2.287390e+07 	 1.138164e+39 	 7.443366e+38 	 1.603462e+22 	 1.666899e+09
1.20155367e+01 	 6.838016e-05 	 1.545466e+03 	 2.231468e+04 	 1.155605e+09 	 6.097764e+21 	 2.260064e+07 	 1.138146e+39 	 7.443271e+38 	 1.591830e+22 	 1.649801e+09
1.20156159e+01 	 6.915275e-05 	 1.544259e+03 	 2.206505e+04 	 1.153800e+09 	 6.049340e+21 	 2.233068e+07 	 1.138127e+39 	 7.443174e+38 	 1.580311e+22 	 1.632874e+09
1.20156953e+01 	 6.993406e-05 	 1.543055e+03 	 2.181821e+04 	 1.152002e+09 	 6.001415e+21 	 2.206399e+07 	 1.138108e+39 	 7.443077e+38 	 1.568902e+22 	 1.616117e+09
1.20157749e+01 	 7.072421e-05 	 1.541855e+03 	 2.157413e+04 	 1.150210e+09 	 5.953983e+21 	 2.180051e+07 	 1.138089e+39 	 7.442980e+38 	 1.557603e+22 	 1.599528e+09
1.20158546e+01 	 7.152327e-05 	 1.540658e+03 	 2.133278e+04 	 1.148425e+09 	 5.907039e+21 	 2.154022e+07 	 1.138070e+39 	 7.442882e+38 	 1.546412e+22 	 1.583106e+09
1.20159344e+01 	 7.233137e-05 	 1.539464e+03 	 2.109413e+04 	 1.146646e+09 	 5.860576e+21 	 2.128307e+07 	 1.138051e+39 	 7.442783e+38 	 1.535329e+22 	 1.566849e+09
1.20160145e+01 	 7.314859e-05 	 1.538274e+03 	 2.085815e+04 	 1.144874e+09 	 5.814589e+21 	 2.102903e+07 	 1.138032e+39 	 7.442683e+38 	 1.524352e+22 	 1.550755e+09
1.20160946e+01 	 7.397504e-05 	 1.537087e+03 	 2.062481e+04 	 1.143109e+09 	 5.769074e+21 	 2.077805e+07 	 1.138013e+39 	 7.442583e+38 	 1.513480e+22 	 1.534823e+09
1.20161750e+01 	 7.481083e-05 	 1.535904e+03 	 2.039408e+04 	 1.141350e+09 	 5.724024e+21 	 2.053011e+07 	 1.137993e+39 	 7.442482e+38 	 1.502712e+22 	 1.519051e+09
1.20162555e+01 	 7.565606e-05 	 1.534725e+03 	 2.016593e+04 	 1.139597e+09 	 5.679434e+21 	 2.028515e+07 	 1.137974e+39 	 7.442381e+38 	 1.492046e+22 	 1.503438e+09
1.20163362e+01 	 7.651083e-05 	 1.533549e+03 	 1.994034e+04 	 1.137851e+09 	 5.635300e+21 	 2.004316e+07 	 1.137954e+39 	 7.442279e+38 	 1.481482e+22 	 1.487981e+09
1.20164170e+01 	 7.737526e-05 	 1.532376e+03 	 1.971726e+04 	 1.136111e+09 	 5.591615e+21 	 1.980408e+07 	 1.137934e+39 	 7.442176e+38 	 1.471019e+22 	 1.472681e+09
1.20164981e+01 	 7.824946e-05 	 1.531206e+03 	 1.949669e+04 	 1.134378e+09 	 5.548375e+21 	 1.956789e+07 	 1.137914e+39 	 7.442072e+38 	 1.460655e+22 	 1.457534e+09
