r (km)        	 u (km/s)    	 cs (km/s)   	 rho (g/cm3) 	 T (K)       	 P (dyne/cm2) 	 phi         	 L (erg/s)   	 L* (erg/s)  	 E (erg)     	 tau        
1.20005319e+01 	 1.250355e-04 	 3.094160e+03 	 1.728688e+04 	 1.544026e+09 	 1.598891e+22 	 2.475419e+07 	 1.371377e+39 	 8.962624e+38 	 4.550563e+22 	 1.067352e+09
1.20008746e+01 	 1.265110e-04 	 3.091584e+03 	 1.708416e+04 	 1.541456e+09 	 1.587156e+22 	 2.444500e+07 	 1.371264e+39 	 8.962024e+38 	 4.518633e+22 	 1.055989e+09
1.20012180e+01 	 1.280038e-04 	 3.089014e+03 	 1.688382e+04 	 1.538895e+09 	 1.575531e+22 	 2.413972e+07 	 1.371151e+39 	 8.961420e+38 	 4.486990e+22 	 1.044744e+09
1.20015624e+01 	 1.295143e-04 	 3.086451e+03 	 1.668583e+04 	 1.536342e+09 	 1.564015e+22 	 2.383828e+07 	 1.371037e+39 	 8.960812e+38 	 4.455630e+22 	 1.033617e+09
1.20019075e+01 	 1.310425e-04 	 3.083895e+03 	 1.649016e+04 	 1.533798e+09 	 1.552607e+22 	 2.354066e+07 	 1.370922e+39 	 8.960201e+38 	 4.424550e+22 	 1.022606e+09
1.20022535e+01 	 1.325888e-04 	 3.081345e+03 	 1.629679e+04 	 1.531263e+09 	 1.541306e+22 	 2.324678e+07 	 1.370807e+39 	 8.959586e+38 	 4.393747e+22 	 1.011710e+09
1.20026004e+01 	 1.341533e-04 	 3.078802e+03 	 1.610568e+04 	 1.528736e+09 	 1.530110e+22 	 2.295662e+07 	 1.370692e+39 	 8.958967e+38 	 4.363219e+22 	 1.000928e+09
1.20029481e+01 	 1.357362e-04 	 3.076266e+03 	 1.591682e+04 	 1.526219e+09 	 1.519018e+22 	 2.267011e+07 	 1.370575e+39 	 8.958343e+38 	 4.332962e+22 	 9.902586e+08
1.20032967e+01 	 1.373378e-04 	 3.073736e+03 	 1.573016e+04 	 1.523709e+09 	 1.508029e+22 	 2.238722e+07 	 1.370458e+39 	 8.957717e+38 	 4.302974e+22 	 9.797009e+08
1.20036462e+01 	 1.389582e-04 	 3.071213e+03 	 1.554570e+04 	 1.521209e+09 	 1.497143e+22 	 2.210789e+07 	 1.370341e+39 	 8.957086e+38 	 4.273253e+22 	 9.692536e+08
1.20039965e+01 	 1.405978e-04 	 3.068696e+03 	 1.536340e+04 	 1.518717e+09 	 1.486357e+22 	 2.183209e+07 	 1.370222e+39 	 8.956451e+38 	 4.243794e+22 	 9.589157e+08
1.20043478e+01 	 1.422567e-04 	 3.066186e+03 	 1.518324e+04 	 1.516233e+09 	 1.475671e+22 	 2.155976e+07 	 1.370103e+39 	 8.955812e+38 	 4.214596e+22 	 9.486860e+08
1.20047000e+01 	 1.439351e-04 	 3.063682e+03 	 1.500519e+04 	 1.513758e+09 	 1.465084e+22 	 2.129086e+07 	 1.369984e+39 	 8.955169e+38 	 4.185656e+22 	 9.385634e+08
1.20050530e+01 	 1.456333e-04 	 3.061185e+03 	 1.482923e+04 	 1.511292e+09 	 1.454595e+22 	 2.102536e+07 	 1.369863e+39 	 8.954523e+38 	 4.156971e+22 	 9.285468e+08
1.20054070e+01 	 1.473515e-04 	 3.058694e+03 	 1.465534e+04 	 1.508833e+09 	 1.444202e+22 	 2.076320e+07 	 1.369742e+39 	 8.953872e+38 	 4.128539e+22 	 9.186351e+08
1.20057619e+01 	 1.490900e-04 	 3.056210e+03 	 1.448348e+04 	 1.506384e+09 	 1.433905e+22 	 2.050434e+07 	 1.369621e+39 	 8.953217e+38 	 4.100356e+22 	 9.088273e+08
1.20061178e+01 	 1.508489e-04 	 3.053733e+03 	 1.431363e+04 	 1.503942e+09 	 1.423703e+22 	 2.024875e+07 	 1.369498e+39 	 8.952557e+38 	 4.072421e+22 	 8.991222e+08
1.20064745e+01 	 1.526286e-04 	 3.051261e+03 	 1.414578e+04 	 1.501509e+09 	 1.413594e+22 	 1.999637e+07 	 1.369375e+39 	 8.951894e+38 	 4.044731e+22 	 8.895189e+08
1.20068323e+01 	 1.544292e-04 	 3.048797e+03 	 1.397990e+04 	 1.499084e+09 	 1.403578e+22 	 1.974717e+07 	 1.369252e+39 	 8.951227e+38 	 4.017283e+22 	 8.800163e+08
1.20071909e+01 	 1.562511e-04 	 3.046338e+03 	 1.381596e+04 	 1.496667e+09 	 1.393653e+22 	 1.950111e+07 	 1.369127e+39 	 8.950555e+38 	 3.990075e+22 	 8.706134e+08
1.20075506e+01 	 1.580944e-04 	 3.043886e+03 	 1.365395e+04 	 1.494259e+09 	 1.383819e+22 	 1.925815e+07 	 1.369002e+39 	 8.949879e+38 	 3.963104e+22 	 8.613091e+08
1.20079112e+01 	 1.599594e-04 	 3.041440e+03 	 1.349383e+04 	 1.491858e+09 	 1.374074e+22 	 1.901825e+07 	 1.368876e+39 	 8.949198e+38 	 3.936367e+22 	 8.521025e+08
1.20082728e+01 	 1.618465e-04 	 3.039001e+03 	 1.333560e+04 	 1.489466e+09 	 1.364419e+22 	 1.878136e+07 	 1.368750e+39 	 8.948514e+38 	 3.909864e+22 	 8.429924e+08
1.20086353e+01 	 1.637557e-04 	 3.036567e+03 	 1.317921e+04 	 1.487082e+09 	 1.354851e+22 	 1.854746e+07 	 1.368622e+39 	 8.947824e+38 	 3.883591e+22 	 8.339781e+08
1.20089989e+01 	 1.656874e-04 	 3.034141e+03 	 1.302467e+04 	 1.484706e+09 	 1.345370e+22 	 1.831650e+07 	 1.368494e+39 	 8.947131e+38 	 3.857545e+22 	 8.250583e+08
1.20093634e+01 	 1.676419e-04 	 3.031720e+03 	 1.287193e+04 	 1.482338e+09 	 1.335974e+22 	 1.808845e+07 	 1.368366e+39 	 8.946433e+38 	 3.831725e+22 	 8.162323e+08
1.20097290e+01 	 1.696194e-04 	 3.029305e+03 	 1.272099e+04 	 1.479978e+09 	 1.326664e+22 	 1.786326e+07 	 1.368236e+39 	 8.945730e+38 	 3.806128e+22 	 8.074991e+08
1.20100956e+01 	 1.716202e-04 	 3.026897e+03 	 1.257181e+04 	 1.477626e+09 	 1.317438e+22 	 1.764091e+07 	 1.368106e+39 	 8.945023e+38 	 3.780751e+22 	 7.988576e+08
1.20104633e+01 	 1.736446e-04 	 3.024495e+03 	 1.242439e+04 	 1.475281e+09 	 1.308294e+22 	 1.742136e+07 	 1.367975e+39 	 8.944312e+38 	 3.755593e+22 	 7.903069e+08
1.20108319e+01 	 1.756928e-04 	 3.022099e+03 	 1.227869e+04 	 1.472945e+09 	 1.299233e+22 	 1.720456e+07 	 1.367843e+39 	 8.943596e+38 	 3.730652e+22 	 7.818462e+08
1.20112016e+01 	 1.777652e-04 	 3.019710e+03 	 1.213470e+04 	 1.470617e+09 	 1.290254e+22 	 1.699049e+07 	 1.367711e+39 	 8.942875e+38 	 3.705924e+22 	 7.734745e+08
1.20115724e+01 	 1.798619e-04 	 3.017326e+03 	 1.199240e+04 	 1.468296e+09 	 1.281355e+22 	 1.677911e+07 	 1.367577e+39 	 8.942150e+38 	 3.681408e+22 	 7.651908e+08
1.20119442e+01 	 1.819834e-04 	 3.014948e+03 	 1.185177e+04 	 1.465983e+09 	 1.272535e+22 	 1.657039e+07 	 1.367443e+39 	 8.941420e+38 	 3.657102e+22 	 7.569944e+08
1.20123171e+01 	 1.841298e-04 	 3.012577e+03 	 1.171279e+04 	 1.463678e+09 	 1.263795e+22 	 1.636429e+07 	 1.367308e+39 	 8.940685e+38 	 3.633004e+22 	 7.488842e+08
1.20126911e+01 	 1.863015e-04 	 3.010212e+03 	 1.157544e+04 	 1.461380e+09 	 1.255132e+22 	 1.616079e+07 	 1.367173e+39 	 8.939945e+38 	 3.609111e+22 	 7.408593e+08
1.20130662e+01 	 1.884988e-04 	 3.007852e+03 	 1.143970e+04 	 1.459090e+09 	 1.246547e+22 	 1.595983e+07 	 1.367036e+39 	 8.939201e+38 	 3.585421e+22 	 7.329190e+08
1.20134423e+01 	 1.907220e-04 	 3.005499e+03 	 1.130555e+04 	 1.456808e+09 	 1.238037e+22 	 1.576141e+07 	 1.366899e+39 	 8.938452e+38 	 3.561933e+22 	 7.250624e+08
1.20138196e+01 	 1.929713e-04 	 3.003152e+03 	 1.117297e+04 	 1.454533e+09 	 1.229604e+22 	 1.556547e+07 	 1.366761e+39 	 8.937697e+38 	 3.538644e+22 	 7.172885e+08
1.20141980e+01 	 1.952471e-04 	 3.000810e+03 	 1.104195e+04 	 1.452266e+09 	 1.221245e+22 	 1.537200e+07 	 1.366622e+39 	 8.936938e+38 	 3.515553e+22 	 7.095965e+08
1.20145775e+01 	 1.975498e-04 	 2.998475e+03 	 1.091246e+04 	 1.450006e+09 	 1.212960e+22 	 1.518095e+07 	 1.366483e+39 	 8.936174e+38 	 3.492657e+22 	 7.019857e+08
1.20149581e+01 	 1.998795e-04 	 2.996145e+03 	 1.078450e+04 	 1.447754e+09 	 1.204749e+22 	 1.499231e+07 	 1.366342e+39 	 8.935405e+38 	 3.469954e+22 	 6.944551e+08
1.20153399e+01 	 2.022367e-04 	 2.993822e+03 	 1.065803e+04 	 1.445510e+09 	 1.196609e+22 	 1.480603e+07 	 1.366201e+39 	 8.934631e+38 	 3.447442e+22 	 6.870039e+08
1.20157228e+01 	 2.046216e-04 	 2.991504e+03 	 1.053305e+04 	 1.443272e+09 	 1.188542e+22 	 1.462209e+07 	 1.366059e+39 	 8.933852e+38 	 3.425120e+22 	 6.796313e+08
1.20161069e+01 	 2.070346e-04 	 2.989192e+03 	 1.040953e+04 	 1.441042e+09 	 1.180545e+22 	 1.444046e+07 	 1.365916e+39 	 8.933068e+38 	 3.402985e+22 	 6.723365e+08
1.20164922e+01 	 2.094761e-04 	 2.986886e+03 	 1.028746e+04 	 1.438820e+09 	 1.172618e+22 	 1.426111e+07 	 1.365772e+39 	 8.932279e+38 	 3.381036e+22 	 6.651187e+08
1.20168786e+01 	 2.119462e-04 	 2.984586e+03 	 1.016682e+04 	 1.436605e+09 	 1.164761e+22 	 1.408400e+07 	 1.365627e+39 	 8.931484e+38 	 3.359271e+22 	 6.579772e+08
1.20172662e+01 	 2.144455e-04 	 2.982292e+03 	 1.004760e+04 	 1.434397e+09 	 1.156973e+22 	 1.390912e+07 	 1.365481e+39 	 8.930684e+38 	 3.337688e+22 	 6.509110e+08
1.20176551e+01 	 2.169741e-04 	 2.980003e+03 	 9.929777e+03 	 1.432196e+09 	 1.149252e+22 	 1.373644e+07 	 1.365335e+39 	 8.929879e+38 	 3.316284e+22 	 6.439195e+08
1.20180451e+01 	 2.195326e-04 	 2.977720e+03 	 9.813334e+03 	 1.430003e+09 	 1.141599e+22 	 1.356592e+07 	 1.365188e+39 	 8.929069e+38 	 3.295059e+22 	 6.370018e+08
1.20184363e+01 	 2.221211e-04 	 2.975443e+03 	 9.698256e+03 	 1.427816e+09 	 1.134012e+22 	 1.339753e+07 	 1.365039e+39 	 8.928253e+38 	 3.274010e+22 	 6.301573e+08
1.20188288e+01 	 2.247402e-04 	 2.973171e+03 	 9.584528e+03 	 1.425637e+09 	 1.126491e+22 	 1.323126e+07 	 1.364890e+39 	 8.927432e+38 	 3.253136e+22 	 6.233851e+08
1.20192225e+01 	 2.273900e-04 	 2.970906e+03 	 9.472134e+03 	 1.423465e+09 	 1.119035e+22 	 1.306707e+07 	 1.364740e+39 	 8.926606e+38 	 3.232435e+22 	 6.166845e+08
1.20196175e+01 	 2.300711e-04 	 2.968645e+03 	 9.361058e+03 	 1.421300e+09 	 1.111644e+22 	 1.290494e+07 	 1.364589e+39 	 8.925773e+38 	 3.211905e+22 	 6.100548e+08
1.20200137e+01 	 2.327837e-04 	 2.966391e+03 	 9.251284e+03 	 1.419142e+09 	 1.104317e+22 	 1.274484e+07 	 1.364438e+39 	 8.924936e+38 	 3.191544e+22 	 6.034952e+08
1.20204112e+01 	 2.355282e-04 	 2.964142e+03 	 9.142797e+03 	 1.416991e+09 	 1.097052e+22 	 1.258675e+07 	 1.364285e+39 	 8.924093e+38 	 3.171352e+22 	 5.970050e+08
1.20208100e+01 	 2.383050e-04 	 2.961899e+03 	 9.035583e+03 	 1.414847e+09 	 1.089850e+22 	 1.243064e+07 	 1.364131e+39 	 8.923244e+38 	 3.151325e+22 	 5.905835e+08
1.20212100e+01 	 2.411145e-04 	 2.959661e+03 	 8.929626e+03 	 1.412710e+09 	 1.082710e+22 	 1.227649e+07 	 1.363976e+39 	 8.922390e+38 	 3.131463e+22 	 5.842300e+08
1.20216114e+01 	 2.439571e-04 	 2.957429e+03 	 8.824911e+03 	 1.410580e+09 	 1.075632e+22 	 1.212426e+07 	 1.363821e+39 	 8.921530e+38 	 3.111763e+22 	 5.779438e+08
1.20220141e+01 	 2.468331e-04 	 2.955202e+03 	 8.721424e+03 	 1.408457e+09 	 1.068613e+22 	 1.197394e+07 	 1.363664e+39 	 8.920664e+38 	 3.092224e+22 	 5.717242e+08
1.20224181e+01 	 2.497430e-04 	 2.952981e+03 	 8.619151e+03 	 1.406340e+09 	 1.061655e+22 	 1.182551e+07 	 1.363507e+39 	 8.919792e+38 	 3.072845e+22 	 5.655704e+08
1.20228234e+01 	 2.526871e-04 	 2.950765e+03 	 8.518077e+03 	 1.404230e+09 	 1.054756e+22 	 1.167893e+07 	 1.363349e+39 	 8.918915e+38 	 3.053624e+22 	 5.594819e+08
1.20232300e+01 	 2.556658e-04 	 2.948555e+03 	 8.418189e+03 	 1.402128e+09 	 1.047915e+22 	 1.153418e+07 	 1.363189e+39 	 8.918031e+38 	 3.034560e+22 	 5.534579e+08
1.20236380e+01 	 2.586797e-04 	 2.946350e+03 	 8.319472e+03 	 1.400031e+09 	 1.041133e+22 	 1.139125e+07 	 1.363029e+39 	 8.917142e+38 	 3.015650e+22 	 5.474977e+08
1.20240474e+01 	 2.617289e-04 	 2.944151e+03 	 8.221912e+03 	 1.397942e+09 	 1.034408e+22 	 1.125011e+07 	 1.362867e+39 	 8.916247e+38 	 2.996893e+22 	 5.416008e+08
1.20244582e+01 	 2.648141e-04 	 2.941957e+03 	 8.125497e+03 	 1.395859e+09 	 1.027740e+22 	 1.111073e+07 	 1.362705e+39 	 8.915346e+38 	 2.978288e+22 	 5.357664e+08
1.20248703e+01 	 2.679355e-04 	 2.939768e+03 	 8.030212e+03 	 1.393783e+09 	 1.021128e+22 	 1.097310e+07 	 1.362542e+39 	 8.914438e+38 	 2.959833e+22 	 5.299940e+08
1.20252839e+01 	 2.710936e-04 	 2.937584e+03 	 7.936044e+03 	 1.391713e+09 	 1.014572e+22 	 1.083719e+07 	 1.362377e+39 	 8.913525e+38 	 2.941527e+22 	 5.242827e+08
1.20256989e+01 	 2.742890e-04 	 2.935406e+03 	 7.842981e+03 	 1.389650e+09 	 1.008071e+22 	 1.070298e+07 	 1.362212e+39 	 8.912606e+38 	 2.923368e+22 	 5.186322e+08
1.20261153e+01 	 2.775219e-04 	 2.933233e+03 	 7.751009e+03 	 1.387594e+09 	 1.001624e+22 	 1.057044e+07 	 1.362046e+39 	 8.911680e+38 	 2.905354e+22 	 5.130416e+08
1.20265332e+01 	 2.807928e-04 	 2.931066e+03 	 7.660116e+03 	 1.385544e+09 	 9.952319e+21 	 1.043957e+07 	 1.361878e+39 	 8.910748e+38 	 2.887485e+22 	 5.075103e+08
1.20269525e+01 	 2.841022e-04 	 2.928903e+03 	 7.570288e+03 	 1.383500e+09 	 9.888928e+21 	 1.031033e+07 	 1.361710e+39 	 8.909810e+38 	 2.869759e+22 	 5.020379e+08
1.20273732e+01 	 2.874505e-04 	 2.926746e+03 	 7.481514e+03 	 1.381463e+09 	 9.826065e+21 	 1.018270e+07 	 1.361540e+39 	 8.908865e+38 	 2.852174e+22 	 4.966236e+08
1.20277955e+01 	 2.908382e-04 	 2.924594e+03 	 7.393781e+03 	 1.379432e+09 	 9.763726e+21 	 1.005668e+07 	 1.361369e+39 	 8.907914e+38 	 2.834729e+22 	 4.912668e+08
1.20282192e+01 	 2.942658e-04 	 2.922447e+03 	 7.307077e+03 	 1.377408e+09 	 9.701905e+21 	 9.932221e+06 	 1.361198e+39 	 8.906957e+38 	 2.817423e+22 	 4.859670e+08
1.20286444e+01 	 2.977336e-04 	 2.920306e+03 	 7.221389e+03 	 1.375390e+09 	 9.640597e+21 	 9.809322e+06 	 1.361025e+39 	 8.905993e+38 	 2.800255e+22 	 4.807235e+08
1.20290711e+01 	 3.012423e-04 	 2.918169e+03 	 7.136706e+03 	 1.373378e+09 	 9.579796e+21 	 9.687958e+06 	 1.360851e+39 	 8.905022e+38 	 2.783222e+22 	 4.755358e+08
1.20294993e+01 	 3.047922e-04 	 2.916038e+03 	 7.053017e+03 	 1.371372e+09 	 9.519497e+21 	 9.568111e+06 	 1.360676e+39 	 8.904045e+38 	 2.766323e+22 	 4.704033e+08
1.20299291e+01 	 3.083839e-04 	 2.913911e+03 	 6.970308e+03 	 1.369373e+09 	 9.459694e+21 	 9.449760e+06 	 1.360500e+39 	 8.903062e+38 	 2.749558e+22 	 4.653254e+08
1.20303605e+01 	 3.120178e-04 	 2.911790e+03 	 6.888570e+03 	 1.367380e+09 	 9.400384e+21 	 9.332888e+06 	 1.360323e+39 	 8.902071e+38 	 2.732925e+22 	 4.603015e+08
1.20307933e+01 	 3.156944e-04 	 2.909673e+03 	 6.807790e+03 	 1.365393e+09 	 9.341561e+21 	 9.217474e+06 	 1.360145e+39 	 8.901074e+38 	 2.716422e+22 	 4.553311e+08
1.20312278e+01 	 3.194142e-04 	 2.907562e+03 	 6.727958e+03 	 1.363412e+09 	 9.283219e+21 	 9.103502e+06 	 1.359966e+39 	 8.900070e+38 	 2.700049e+22 	 4.504136e+08
1.20316638e+01 	 3.231778e-04 	 2.905455e+03 	 6.649061e+03 	 1.361437e+09 	 9.225354e+21 	 8.990952e+06 	 1.359785e+39 	 8.899060e+38 	 2.683804e+22 	 4.455486e+08
1.20321015e+01 	 3.269857e-04 	 2.903354e+03 	 6.571090e+03 	 1.359468e+09 	 9.167961e+21 	 8.879807e+06 	 1.359604e+39 	 8.898042e+38 	 2.667686e+22 	 4.407353e+08
1.20325408e+01 	 3.308383e-04 	 2.901257e+03 	 6.494033e+03 	 1.357505e+09 	 9.111036e+21 	 8.770049e+06 	 1.359421e+39 	 8.897018e+38 	 2.651693e+22 	 4.359733e+08
1.20329816e+01 	 3.347361e-04 	 2.899166e+03 	 6.417880e+03 	 1.355549e+09 	 9.054572e+21 	 8.661661e+06 	 1.359237e+39 	 8.895986e+38 	 2.635825e+22 	 4.312621e+08
1.20334242e+01 	 3.386799e-04 	 2.897079e+03 	 6.342619e+03 	 1.353598e+09 	 8.998567e+21 	 8.554625e+06 	 1.359052e+39 	 8.894947e+38 	 2.620079e+22 	 4.266011e+08
1.20338683e+01 	 3.426699e-04 	 2.894997e+03 	 6.268242e+03 	 1.351653e+09 	 8.943015e+21 	 8.448924e+06 	 1.358866e+39 	 8.893902e+38 	 2.604456e+22 	 4.219898e+08
1.20343142e+01 	 3.467069e-04 	 2.892919e+03 	 6.194736e+03 	 1.349714e+09 	 8.887910e+21 	 8.344541e+06 	 1.358678e+39 	 8.892849e+38 	 2.588953e+22 	 4.174277e+08
1.20347617e+01 	 3.507913e-04 	 2.890847e+03 	 6.122093e+03 	 1.347781e+09 	 8.833250e+21 	 8.241460e+06 	 1.358490e+39 	 8.891789e+38 	 2.573570e+22 	 4.129143e+08
1.20352109e+01 	 3.549237e-04 	 2.888779e+03 	 6.050301e+03 	 1.345854e+09 	 8.779028e+21 	 8.139665e+06 	 1.358300e+39 	 8.890722e+38 	 2.558305e+22 	 4.084490e+08
1.20356619e+01 	 3.591047e-04 	 2.886716e+03 	 5.979351e+03 	 1.343932e+09 	 8.725242e+21 	 8.039138e+06 	 1.358109e+39 	 8.889647e+38 	 2.543157e+22 	 4.040314e+08
1.20361146e+01 	 3.633349e-04 	 2.884658e+03 	 5.909234e+03 	 1.342016e+09 	 8.671886e+21 	 7.939865e+06 	 1.357917e+39 	 8.888565e+38 	 2.528125e+22 	 3.996609e+08
1.20365689e+01 	 3.676147e-04 	 2.882605e+03 	 5.839938e+03 	 1.340106e+09 	 8.618957e+21 	 7.841829e+06 	 1.357723e+39 	 8.887475e+38 	 2.513209e+22 	 3.953371e+08
1.20370251e+01 	 3.719448e-04 	 2.880556e+03 	 5.771455e+03 	 1.338202e+09 	 8.566449e+21 	 7.745015e+06 	 1.357528e+39 	 8.886379e+38 	 2.498405e+22 	 3.910595e+08
1.20374830e+01 	 3.763259e-04 	 2.878511e+03 	 5.703775e+03 	 1.336303e+09 	 8.514358e+21 	 7.649407e+06 	 1.357332e+39 	 8.885274e+38 	 2.483715e+22 	 3.868276e+08
1.20379427e+01 	 3.807583e-04 	 2.876472e+03 	 5.636889e+03 	 1.334410e+09 	 8.462680e+21 	 7.554991e+06 	 1.357135e+39 	 8.884162e+38 	 2.469136e+22 	 3.826409e+08
1.20384043e+01 	 3.852429e-04 	 2.874437e+03 	 5.570787e+03 	 1.332523e+09 	 8.411411e+21 	 7.461750e+06 	 1.356937e+39 	 8.883042e+38 	 2.454668e+22 	 3.784989e+08
1.20388676e+01 	 3.897802e-04 	 2.872406e+03 	 5.505461e+03 	 1.330641e+09 	 8.360547e+21 	 7.369671e+06 	 1.356737e+39 	 8.881915e+38 	 2.440308e+22 	 3.744012e+08
1.20393327e+01 	 3.943707e-04 	 2.870380e+03 	 5.440900e+03 	 1.328764e+09 	 8.310084e+21 	 7.278739e+06 	 1.356536e+39 	 8.880780e+38 	 2.426058e+22 	 3.703474e+08
1.20397997e+01 	 3.990152e-04 	 2.868359e+03 	 5.377096e+03 	 1.326893e+09 	 8.260018e+21 	 7.188939e+06 	 1.356334e+39 	 8.879637e+38 	 2.411914e+22 	 3.663369e+08
1.20402686e+01 	 4.037142e-04 	 2.866342e+03 	 5.314041e+03 	 1.325028e+09 	 8.210345e+21 	 7.100257e+06 	 1.356130e+39 	 8.878486e+38 	 2.397877e+22 	 3.623692e+08
1.20407393e+01 	 4.084685e-04 	 2.864329e+03 	 5.251725e+03 	 1.323168e+09 	 8.161061e+21 	 7.012679e+06 	 1.355925e+39 	 8.877327e+38 	 2.383945e+22 	 3.584441e+08
1.20412119e+01 	 4.132786e-04 	 2.862321e+03 	 5.190140e+03 	 1.321313e+09 	 8.112160e+21 	 6.926191e+06 	 1.355719e+39 	 8.876160e+38 	 2.370117e+22 	 3.545609e+08
1.20416865e+01 	 4.181451e-04 	 2.860317e+03 	 5.129277e+03 	 1.319464e+09 	 8.063641e+21 	 6.840779e+06 	 1.355511e+39 	 8.874985e+38 	 2.356392e+22 	 3.507194e+08
1.20421630e+01 	 4.230689e-04 	 2.858318e+03 	 5.069128e+03 	 1.317620e+09 	 8.015498e+21 	 6.756430e+06 	 1.355302e+39 	 8.873802e+38 	 2.342769e+22 	 3.469189e+08
1.20426414e+01 	 4.280504e-04 	 2.856323e+03 	 5.009684e+03 	 1.315781e+09 	 7.967728e+21 	 6.673131e+06 	 1.355092e+39 	 8.872611e+38 	 2.329248e+22 	 3.431592e+08
1.20431218e+01 	 4.330905e-04 	 2.854332e+03 	 4.950937e+03 	 1.313948e+09 	 7.920328e+21 	 6.590868e+06 	 1.354880e+39 	 8.871411e+38 	 2.315826e+22 	 3.394397e+08
1.20436042e+01 	 4.381897e-04 	 2.852346e+03 	 4.892879e+03 	 1.312120e+09 	 7.873293e+21 	 6.509628e+06 	 1.354667e+39 	 8.870203e+38 	 2.302504e+22 	 3.357601e+08
1.20440886e+01 	 4.433488e-04 	 2.850364e+03 	 4.835502e+03 	 1.310297e+09 	 7.826621e+21 	 6.429398e+06 	 1.354452e+39 	 8.868987e+38 	 2.289279e+22 	 3.321199e+08
1.20445750e+01 	 4.485685e-04 	 2.848386e+03 	 4.778798e+03 	 1.308479e+09 	 7.780307e+21 	 6.350166e+06 	 1.354237e+39 	 8.867763e+38 	 2.276152e+22 	 3.285187e+08
1.20450634e+01 	 4.538495e-04 	 2.846412e+03 	 4.722758e+03 	 1.306666e+09 	 7.734348e+21 	 6.271920e+06 	 1.354019e+39 	 8.866529e+38 	 2.263122e+22 	 3.249562e+08
1.20455539e+01 	 4.591924e-04 	 2.844442e+03 	 4.667376e+03 	 1.304858e+09 	 7.688740e+21 	 6.194646e+06 	 1.353801e+39 	 8.865288e+38 	 2.250187e+22 	 3.214318e+08
1.20460464e+01 	 4.645981e-04 	 2.842477e+03 	 4.612644e+03 	 1.303056e+09 	 7.643480e+21 	 6.118332e+06 	 1.353581e+39 	 8.864038e+38 	 2.237346e+22 	 3.179453e+08
1.20465410e+01 	 4.700672e-04 	 2.840516e+03 	 4.558553e+03 	 1.301258e+09 	 7.598564e+21 	 6.042967e+06 	 1.353359e+39 	 8.862779e+38 	 2.224599e+22 	 3.144961e+08
1.20470378e+01 	 4.756006e-04 	 2.838559e+03 	 4.505096e+03 	 1.299466e+09 	 7.553989e+21 	 5.968539e+06 	 1.353136e+39 	 8.861511e+38 	 2.211944e+22 	 3.110840e+08
1.20475366e+01 	 4.811989e-04 	 2.836606e+03 	 4.452266e+03 	 1.297678e+09 	 7.509751e+21 	 5.895035e+06 	 1.352912e+39 	 8.860234e+38 	 2.199381e+22 	 3.077085e+08
1.20480376e+01 	 4.868628e-04 	 2.834656e+03 	 4.400056e+03 	 1.295895e+09 	 7.465847e+21 	 5.822444e+06 	 1.352686e+39 	 8.858949e+38 	 2.186909e+22 	 3.043692e+08
1.20485407e+01 	 4.925933e-04 	 2.832711e+03 	 4.348458e+03 	 1.294118e+09 	 7.422274e+21 	 5.750756e+06 	 1.352458e+39 	 8.857655e+38 	 2.174527e+22 	 3.010658e+08
1.20490460e+01 	 4.983910e-04 	 2.830771e+03 	 4.297466e+03 	 1.292345e+09 	 7.379029e+21 	 5.679957e+06 	 1.352229e+39 	 8.856352e+38 	 2.162234e+22 	 2.977978e+08
1.20495535e+01 	 5.042567e-04 	 2.828833e+03 	 4.247071e+03 	 1.290577e+09 	 7.336107e+21 	 5.610038e+06 	 1.351999e+39 	 8.855039e+38 	 2.150030e+22 	 2.945650e+08
