r (km)        	 u (km/s)    	 cs (km/s)   	 rho (g/cm3) 	 T (K)       	 P (dyne/cm2) 	 phi         	 L (erg/s)   	 L* (erg/s)  	 E (erg)     	 tau        
1.20091758e+01 	 8.806864e-04 	 3.122097e+03 	 3.461149e+03 	 1.572033e+09 	 1.596423e+22 	 3.544783e+06 	 1.626155e+39 	 1.063178e+39 	 4.705079e+22 	 2.114109e+08
1.20103675e+01 	 8.900322e-04 	 3.120094e+03 	 3.424036e+03 	 1.570017e+09 	 1.587863e+22 	 3.505312e+06 	 1.625382e+39 	 1.062729e+39 	 4.680409e+22 	 2.093369e+08
1.20115666e+01 	 8.994758e-04 	 3.118091e+03 	 3.387321e+03 	 1.568002e+09 	 1.579346e+22 	 3.466284e+06 	 1.624605e+39 	 1.062277e+39 	 4.655853e+22 	 2.072835e+08
1.20127731e+01 	 9.090184e-04 	 3.116088e+03 	 3.351000e+03 	 1.565989e+09 	 1.570870e+22 	 3.427693e+06 	 1.623825e+39 	 1.061823e+39 	 4.631412e+22 	 2.052504e+08
1.20139873e+01 	 9.186610e-04 	 3.114085e+03 	 3.315068e+03 	 1.563975e+09 	 1.562437e+22 	 3.389534e+06 	 1.623040e+39 	 1.061367e+39 	 4.607083e+22 	 2.032375e+08
1.20152090e+01 	 9.284045e-04 	 3.112081e+03 	 3.279521e+03 	 1.561963e+09 	 1.554044e+22 	 3.351803e+06 	 1.622252e+39 	 1.060908e+39 	 4.582867e+22 	 2.012445e+08
1.20164384e+01 	 9.382501e-04 	 3.110077e+03 	 3.244355e+03 	 1.559952e+09 	 1.545692e+22 	 3.314495e+06 	 1.621459e+39 	 1.060447e+39 	 4.558762e+22 	 1.992713e+08
1.20176755e+01 	 9.481987e-04 	 3.108072e+03 	 3.209567e+03 	 1.557942e+09 	 1.537382e+22 	 3.277606e+06 	 1.620662e+39 	 1.059984e+39 	 4.534768e+22 	 1.973177e+08
1.20189204e+01 	 9.582514e-04 	 3.106067e+03 	 3.175152e+03 	 1.555932e+09 	 1.529111e+22 	 3.241129e+06 	 1.619861e+39 	 1.059518e+39 	 4.510884e+22 	 1.953835e+08
1.20201732e+01 	 9.684093e-04 	 3.104061e+03 	 3.141105e+03 	 1.553924e+09 	 1.520880e+22 	 3.205062e+06 	 1.619056e+39 	 1.059050e+39 	 4.487108e+22 	 1.934684e+08
1.20214340e+01 	 9.786734e-04 	 3.102055e+03 	 3.107424e+03 	 1.551916e+09 	 1.512689e+22 	 3.169398e+06 	 1.618247e+39 	 1.058579e+39 	 4.463440e+22 	 1.915723e+08
1.20227028e+01 	 9.890449e-04 	 3.100048e+03 	 3.074104e+03 	 1.549908e+09 	 1.504537e+22 	 3.134135e+06 	 1.617434e+39 	 1.058106e+39 	 4.439880e+22 	 1.896950e+08
1.20239796e+01 	 9.995248e-04 	 3.098041e+03 	 3.041141e+03 	 1.547902e+09 	 1.496425e+22 	 3.099266e+06 	 1.616617e+39 	 1.057631e+39 	 4.416426e+22 	 1.878364e+08
1.20252646e+01 	 1.010114e-03 	 3.096033e+03 	 3.008531e+03 	 1.545896e+09 	 1.488351e+22 	 3.064788e+06 	 1.615795e+39 	 1.057153e+39 	 4.393079e+22 	 1.859962e+08
1.20265578e+01 	 1.020814e-03 	 3.094024e+03 	 2.976271e+03 	 1.543891e+09 	 1.480316e+22 	 3.030696e+06 	 1.614969e+39 	 1.056673e+39 	 4.369836e+22 	 1.841742e+08
1.20278593e+01 	 1.031626e-03 	 3.092015e+03 	 2.944358e+03 	 1.541886e+09 	 1.472318e+22 	 2.996986e+06 	 1.614140e+39 	 1.056191e+39 	 4.346697e+22 	 1.823703e+08
1.20291692e+01 	 1.042551e-03 	 3.090005e+03 	 2.912786e+03 	 1.539882e+09 	 1.464359e+22 	 2.963653e+06 	 1.613306e+39 	 1.055706e+39 	 4.323661e+22 	 1.805844e+08
1.20304875e+01 	 1.053589e-03 	 3.087994e+03 	 2.881553e+03 	 1.537879e+09 	 1.456437e+22 	 2.930694e+06 	 1.612467e+39 	 1.055218e+39 	 4.300728e+22 	 1.788161e+08
1.20318143e+01 	 1.064743e-03 	 3.085983e+03 	 2.850655e+03 	 1.535876e+09 	 1.448552e+22 	 2.898104e+06 	 1.611625e+39 	 1.054728e+39 	 4.277897e+22 	 1.770654e+08
1.20331497e+01 	 1.076014e-03 	 3.083970e+03 	 2.820088e+03 	 1.533873e+09 	 1.440705e+22 	 2.865879e+06 	 1.610779e+39 	 1.054236e+39 	 4.255168e+22 	 1.753321e+08
1.20344937e+01 	 1.087402e-03 	 3.081957e+03 	 2.789849e+03 	 1.531871e+09 	 1.432894e+22 	 2.834015e+06 	 1.609928e+39 	 1.053741e+39 	 4.232539e+22 	 1.736159e+08
1.20358465e+01 	 1.098908e-03 	 3.079943e+03 	 2.759934e+03 	 1.529870e+09 	 1.425119e+22 	 2.802508e+06 	 1.609073e+39 	 1.053244e+39 	 4.210009e+22 	 1.719168e+08
1.20372082e+01 	 1.110535e-03 	 3.077928e+03 	 2.730340e+03 	 1.527869e+09 	 1.417381e+22 	 2.771353e+06 	 1.608213e+39 	 1.052745e+39 	 4.187578e+22 	 1.702346e+08
1.20385787e+01 	 1.122283e-03 	 3.075912e+03 	 2.701063e+03 	 1.525868e+09 	 1.409678e+22 	 2.740547e+06 	 1.607350e+39 	 1.052243e+39 	 4.165246e+22 	 1.685691e+08
1.20399582e+01 	 1.134153e-03 	 3.073895e+03 	 2.672100e+03 	 1.523867e+09 	 1.402011e+22 	 2.710087e+06 	 1.606482e+39 	 1.051738e+39 	 4.143011e+22 	 1.669201e+08
1.20413466e+01 	 1.146147e-03 	 3.071877e+03 	 2.643448e+03 	 1.521867e+09 	 1.394380e+22 	 2.679967e+06 	 1.605610e+39 	 1.051231e+39 	 4.120874e+22 	 1.652875e+08
1.20427441e+01 	 1.158266e-03 	 3.069858e+03 	 2.615102e+03 	 1.519868e+09 	 1.386784e+22 	 2.650184e+06 	 1.604734e+39 	 1.050722e+39 	 4.098834e+22 	 1.636711e+08
1.20441509e+01 	 1.170510e-03 	 3.067838e+03 	 2.587061e+03 	 1.517868e+09 	 1.379222e+22 	 2.620735e+06 	 1.603853e+39 	 1.050210e+39 	 4.076888e+22 	 1.620707e+08
1.20455669e+01 	 1.182883e-03 	 3.065817e+03 	 2.559321e+03 	 1.515869e+09 	 1.371696e+22 	 2.591615e+06 	 1.602968e+39 	 1.049695e+39 	 4.055038e+22 	 1.604862e+08
1.20469922e+01 	 1.195384e-03 	 3.063795e+03 	 2.531878e+03 	 1.513870e+09 	 1.364203e+22 	 2.562821e+06 	 1.602079e+39 	 1.049178e+39 	 4.033283e+22 	 1.589175e+08
1.20484270e+01 	 1.208015e-03 	 3.061772e+03 	 2.504729e+03 	 1.511871e+09 	 1.356745e+22 	 2.534350e+06 	 1.601185e+39 	 1.048659e+39 	 4.011620e+22 	 1.573643e+08
1.20498714e+01 	 1.220777e-03 	 3.059747e+03 	 2.477872e+03 	 1.509872e+09 	 1.349320e+22 	 2.506197e+06 	 1.600287e+39 	 1.048137e+39 	 3.990051e+22 	 1.558266e+08
1.20513253e+01 	 1.233672e-03 	 3.057722e+03 	 2.451302e+03 	 1.507874e+09 	 1.341929e+22 	 2.478359e+06 	 1.599385e+39 	 1.047613e+39 	 3.968574e+22 	 1.543041e+08
1.20527888e+01 	 1.246702e-03 	 3.055695e+03 	 2.425017e+03 	 1.505875e+09 	 1.334572e+22 	 2.450833e+06 	 1.598479e+39 	 1.047086e+39 	 3.947190e+22 	 1.527968e+08
1.20542621e+01 	 1.259866e-03 	 3.053666e+03 	 2.399014e+03 	 1.503877e+09 	 1.327247e+22 	 2.423614e+06 	 1.597568e+39 	 1.046557e+39 	 3.925896e+22 	 1.513044e+08
1.20557453e+01 	 1.273167e-03 	 3.051637e+03 	 2.373290e+03 	 1.501879e+09 	 1.319956e+22 	 2.396700e+06 	 1.596653e+39 	 1.046025e+39 	 3.904693e+22 	 1.498269e+08
1.20572384e+01 	 1.286606e-03 	 3.049606e+03 	 2.347842e+03 	 1.499880e+09 	 1.312697e+22 	 2.370088e+06 	 1.595733e+39 	 1.045491e+39 	 3.883580e+22 	 1.483640e+08
1.20587414e+01 	 1.300185e-03 	 3.047574e+03 	 2.322667e+03 	 1.497882e+09 	 1.305470e+22 	 2.343773e+06 	 1.594809e+39 	 1.044954e+39 	 3.862556e+22 	 1.469157e+08
1.20602546e+01 	 1.313904e-03 	 3.045540e+03 	 2.297761e+03 	 1.495884e+09 	 1.298276e+22 	 2.317752e+06 	 1.593881e+39 	 1.044414e+39 	 3.841622e+22 	 1.454817e+08
1.20617780e+01 	 1.327766e-03 	 3.043505e+03 	 2.273123e+03 	 1.493885e+09 	 1.291114e+22 	 2.292022e+06 	 1.592948e+39 	 1.043873e+39 	 3.820775e+22 	 1.440620e+08
1.20633116e+01 	 1.341772e-03 	 3.041469e+03 	 2.248749e+03 	 1.491887e+09 	 1.283983e+22 	 2.266581e+06 	 1.592011e+39 	 1.043328e+39 	 3.800016e+22 	 1.426564e+08
1.20648555e+01 	 1.355923e-03 	 3.039431e+03 	 2.224636e+03 	 1.489888e+09 	 1.276884e+22 	 2.241423e+06 	 1.591069e+39 	 1.042781e+39 	 3.779345e+22 	 1.412648e+08
1.20664097e+01 	 1.370220e-03 	 3.037391e+03 	 2.200782e+03 	 1.487889e+09 	 1.269817e+22 	 2.216548e+06 	 1.590123e+39 	 1.042232e+39 	 3.758760e+22 	 1.398869e+08
1.20679746e+01 	 1.384665e-03 	 3.035350e+03 	 2.177183e+03 	 1.485890e+09 	 1.262781e+22 	 2.191950e+06 	 1.589173e+39 	 1.041680e+39 	 3.738262e+22 	 1.385228e+08
1.20695500e+01 	 1.399260e-03 	 3.033308e+03 	 2.153838e+03 	 1.483891e+09 	 1.255775e+22 	 2.167627e+06 	 1.588218e+39 	 1.041126e+39 	 3.717848e+22 	 1.371722e+08
1.20711361e+01 	 1.414006e-03 	 3.031264e+03 	 2.130743e+03 	 1.481892e+09 	 1.248800e+22 	 2.143577e+06 	 1.587259e+39 	 1.040569e+39 	 3.697520e+22 	 1.358351e+08
1.20727329e+01 	 1.428905e-03 	 3.029218e+03 	 2.107895e+03 	 1.479892e+09 	 1.241856e+22 	 2.119795e+06 	 1.586296e+39 	 1.040009e+39 	 3.677277e+22 	 1.345112e+08
1.20743406e+01 	 1.443958e-03 	 3.027171e+03 	 2.085293e+03 	 1.477893e+09 	 1.234943e+22 	 2.096279e+06 	 1.585328e+39 	 1.039448e+39 	 3.657118e+22 	 1.332005e+08
1.20759592e+01 	 1.459166e-03 	 3.025122e+03 	 2.062932e+03 	 1.475893e+09 	 1.228059e+22 	 2.073027e+06 	 1.584355e+39 	 1.038883e+39 	 3.637043e+22 	 1.319028e+08
1.20775889e+01 	 1.474532e-03 	 3.023071e+03 	 2.040812e+03 	 1.473892e+09 	 1.221206e+22 	 2.050034e+06 	 1.583379e+39 	 1.038316e+39 	 3.617050e+22 	 1.306180e+08
1.20792297e+01 	 1.490056e-03 	 3.021018e+03 	 2.018929e+03 	 1.471892e+09 	 1.214382e+22 	 2.027298e+06 	 1.582397e+39 	 1.037747e+39 	 3.597140e+22 	 1.293460e+08
1.20808817e+01 	 1.505741e-03 	 3.018964e+03 	 1.997280e+03 	 1.469891e+09 	 1.207587e+22 	 2.004816e+06 	 1.581411e+39 	 1.037175e+39 	 3.577312e+22 	 1.280866e+08
1.20825451e+01 	 1.521588e-03 	 3.016908e+03 	 1.975864e+03 	 1.467889e+09 	 1.200823e+22 	 1.982586e+06 	 1.580421e+39 	 1.036600e+39 	 3.557565e+22 	 1.268397e+08
1.20842200e+01 	 1.537598e-03 	 3.014850e+03 	 1.954677e+03 	 1.465887e+09 	 1.194087e+22 	 1.960604e+06 	 1.579427e+39 	 1.036023e+39 	 3.537899e+22 	 1.256052e+08
1.20859062e+01 	 1.553774e-03 	 3.012791e+03 	 1.933718e+03 	 1.463885e+09 	 1.187380e+22 	 1.938868e+06 	 1.578428e+39 	 1.035443e+39 	 3.518315e+22 	 1.243830e+08
1.20876041e+01 	 1.570116e-03 	 3.010729e+03 	 1.912983e+03 	 1.461882e+09 	 1.180702e+22 	 1.917375e+06 	 1.577424e+39 	 1.034861e+39 	 3.498810e+22 	 1.231729e+08
1.20893138e+01 	 1.586627e-03 	 3.008666e+03 	 1.892471e+03 	 1.459879e+09 	 1.174053e+22 	 1.896122e+06 	 1.576416e+39 	 1.034277e+39 	 3.479385e+22 	 1.219748e+08
1.20910352e+01 	 1.603308e-03 	 3.006600e+03 	 1.872178e+03 	 1.457876e+09 	 1.167432e+22 	 1.875107e+06 	 1.575403e+39 	 1.033690e+39 	 3.460038e+22 	 1.207887e+08
1.20927684e+01 	 1.620161e-03 	 3.004533e+03 	 1.852103e+03 	 1.455871e+09 	 1.160840e+22 	 1.854326e+06 	 1.574386e+39 	 1.033100e+39 	 3.440772e+22 	 1.196143e+08
1.20945137e+01 	 1.637187e-03 	 3.002464e+03 	 1.832243e+03 	 1.453867e+09 	 1.154275e+22 	 1.833778e+06 	 1.573365e+39 	 1.032508e+39 	 3.421583e+22 	 1.184516e+08
1.20962711e+01 	 1.654389e-03 	 3.000392e+03 	 1.812597e+03 	 1.451861e+09 	 1.147739e+22 	 1.813460e+06 	 1.572339e+39 	 1.031913e+39 	 3.402472e+22 	 1.173005e+08
1.20980406e+01 	 1.671767e-03 	 2.998319e+03 	 1.793161e+03 	 1.449855e+09 	 1.141231e+22 	 1.793368e+06 	 1.571309e+39 	 1.031316e+39 	 3.383439e+22 	 1.161608e+08
1.20998223e+01 	 1.689325e-03 	 2.996243e+03 	 1.773933e+03 	 1.447849e+09 	 1.134750e+22 	 1.773501e+06 	 1.570274e+39 	 1.030716e+39 	 3.364483e+22 	 1.150324e+08
1.21016164e+01 	 1.707063e-03 	 2.994166e+03 	 1.754912e+03 	 1.445842e+09 	 1.128297e+22 	 1.753856e+06 	 1.569235e+39 	 1.030114e+39 	 3.345604e+22 	 1.139153e+08
1.21034229e+01 	 1.724983e-03 	 2.992086e+03 	 1.736094e+03 	 1.443834e+09 	 1.121871e+22 	 1.734430e+06 	 1.568191e+39 	 1.029509e+39 	 3.326802e+22 	 1.128092e+08
1.21052420e+01 	 1.743088e-03 	 2.990005e+03 	 1.717478e+03 	 1.441826e+09 	 1.115472e+22 	 1.715221e+06 	 1.567142e+39 	 1.028902e+39 	 3.308075e+22 	 1.117141e+08
1.21070738e+01 	 1.761378e-03 	 2.987921e+03 	 1.699062e+03 	 1.439817e+09 	 1.109101e+22 	 1.696227e+06 	 1.566090e+39 	 1.028292e+39 	 3.289424e+22 	 1.106299e+08
1.21089182e+01 	 1.779857e-03 	 2.985835e+03 	 1.680844e+03 	 1.437807e+09 	 1.102756e+22 	 1.677446e+06 	 1.565032e+39 	 1.027679e+39 	 3.270849e+22 	 1.095565e+08
1.21107755e+01 	 1.798525e-03 	 2.983747e+03 	 1.662820e+03 	 1.435797e+09 	 1.096438e+22 	 1.658874e+06 	 1.563971e+39 	 1.027065e+39 	 3.252348e+22 	 1.084937e+08
1.21126457e+01 	 1.817384e-03 	 2.981656e+03 	 1.644990e+03 	 1.433786e+09 	 1.090147e+22 	 1.640509e+06 	 1.562904e+39 	 1.026447e+39 	 3.233922e+22 	 1.074415e+08
1.21145291e+01 	 1.836437e-03 	 2.979563e+03 	 1.627351e+03 	 1.431774e+09 	 1.083883e+22 	 1.622350e+06 	 1.561834e+39 	 1.025827e+39 	 3.215570e+22 	 1.063998e+08
1.21164255e+01 	 1.855685e-03 	 2.977469e+03 	 1.609902e+03 	 1.429761e+09 	 1.077644e+22 	 1.604393e+06 	 1.560759e+39 	 1.025205e+39 	 3.197292e+22 	 1.053683e+08
1.21183352e+01 	 1.875130e-03 	 2.975371e+03 	 1.592639e+03 	 1.427748e+09 	 1.071432e+22 	 1.586637e+06 	 1.559679e+39 	 1.024580e+39 	 3.179087e+22 	 1.043472e+08
1.21202584e+01 	 1.894775e-03 	 2.973272e+03 	 1.575562e+03 	 1.425733e+09 	 1.065246e+22 	 1.569079e+06 	 1.558595e+39 	 1.023953e+39 	 3.160955e+22 	 1.033362e+08
1.21221951e+01 	 1.914621e-03 	 2.971170e+03 	 1.558667e+03 	 1.423718e+09 	 1.059086e+22 	 1.551718e+06 	 1.557506e+39 	 1.023323e+39 	 3.142896e+22 	 1.023352e+08
1.21241452e+01 	 1.934669e-03 	 2.969065e+03 	 1.541954e+03 	 1.421702e+09 	 1.052952e+22 	 1.534550e+06 	 1.556413e+39 	 1.022691e+39 	 3.124910e+22 	 1.013442e+08
1.21261091e+01 	 1.954923e-03 	 2.966959e+03 	 1.525420e+03 	 1.419685e+09 	 1.046843e+22 	 1.517574e+06 	 1.555315e+39 	 1.022056e+39 	 3.106995e+22 	 1.003630e+08
1.21280868e+01 	 1.975384e-03 	 2.964849e+03 	 1.509063e+03 	 1.417667e+09 	 1.040760e+22 	 1.500787e+06 	 1.554213e+39 	 1.021419e+39 	 3.089151e+22 	 9.939155e+07
1.21300785e+01 	 1.996054e-03 	 2.962738e+03 	 1.492882e+03 	 1.415649e+09 	 1.034702e+22 	 1.484188e+06 	 1.553107e+39 	 1.020779e+39 	 3.071379e+22 	 9.842976e+07
1.21320840e+01 	 2.016936e-03 	 2.960624e+03 	 1.476874e+03 	 1.413629e+09 	 1.028669e+22 	 1.467775e+06 	 1.551996e+39 	 1.020136e+39 	 3.053679e+22 	 9.747752e+07
1.21341037e+01 	 2.038030e-03 	 2.958507e+03 	 1.461038e+03 	 1.411609e+09 	 1.022662e+22 	 1.451544e+06 	 1.550881e+39 	 1.019492e+39 	 3.036049e+22 	 9.653474e+07
1.21361376e+01 	 2.059340e-03 	 2.956388e+03 	 1.445371e+03 	 1.409587e+09 	 1.016680e+22 	 1.435495e+06 	 1.549761e+39 	 1.018845e+39 	 3.018490e+22 	 9.560132e+07
1.21381859e+01 	 2.080867e-03 	 2.954266e+03 	 1.429873e+03 	 1.407565e+09 	 1.010722e+22 	 1.419625e+06 	 1.548636e+39 	 1.018195e+39 	 3.001000e+22 	 9.467716e+07
1.21402486e+01 	 2.102614e-03 	 2.952142e+03 	 1.414541e+03 	 1.405541e+09 	 1.004790e+22 	 1.403932e+06 	 1.547507e+39 	 1.017543e+39 	 2.983581e+22 	 9.376219e+07
1.21423257e+01 	 2.124582e-03 	 2.950015e+03 	 1.399373e+03 	 1.403517e+09 	 9.988822e+21 	 1.388415e+06 	 1.546374e+39 	 1.016888e+39 	 2.966232e+22 	 9.285629e+07
1.21444175e+01 	 2.146775e-03 	 2.947886e+03 	 1.384368e+03 	 1.401492e+09 	 9.929990e+21 	 1.373070e+06 	 1.545237e+39 	 1.016231e+39 	 2.948952e+22 	 9.195939e+07
1.21465241e+01 	 2.169193e-03 	 2.945754e+03 	 1.369524e+03 	 1.399465e+09 	 9.871402e+21 	 1.357897e+06 	 1.544094e+39 	 1.015572e+39 	 2.931740e+22 	 9.107140e+07
1.21486455e+01 	 2.191839e-03 	 2.943620e+03 	 1.354839e+03 	 1.397438e+09 	 9.813059e+21 	 1.342893e+06 	 1.542948e+39 	 1.014910e+39 	 2.914598e+22 	 9.019222e+07
1.21507818e+01 	 2.214716e-03 	 2.941482e+03 	 1.340311e+03 	 1.395409e+09 	 9.754960e+21 	 1.328057e+06 	 1.541797e+39 	 1.014246e+39 	 2.897525e+22 	 8.932176e+07
1.21529331e+01 	 2.237826e-03 	 2.939342e+03 	 1.325939e+03 	 1.393380e+09 	 9.697103e+21 	 1.313386e+06 	 1.540641e+39 	 1.013579e+39 	 2.880519e+22 	 8.845994e+07
1.21550997e+01 	 2.261171e-03 	 2.937200e+03 	 1.311721e+03 	 1.391349e+09 	 9.639486e+21 	 1.298879e+06 	 1.539482e+39 	 1.012910e+39 	 2.863582e+22 	 8.760668e+07
1.21572817e+01 	 2.284753e-03 	 2.935054e+03 	 1.297656e+03 	 1.389317e+09 	 9.582108e+21 	 1.284534e+06 	 1.538317e+39 	 1.012238e+39 	 2.846712e+22 	 8.676188e+07
1.21594789e+01 	 2.308574e-03 	 2.932906e+03 	 1.283742e+03 	 1.387284e+09 	 9.524970e+21 	 1.270349e+06 	 1.537149e+39 	 1.011564e+39 	 2.829911e+22 	 8.592546e+07
1.21616917e+01 	 2.332637e-03 	 2.930756e+03 	 1.269976e+03 	 1.385250e+09 	 9.468070e+21 	 1.256323e+06 	 1.535976e+39 	 1.010888e+39 	 2.813176e+22 	 8.509735e+07
1.21639202e+01 	 2.356945e-03 	 2.928602e+03 	 1.256359e+03 	 1.383215e+09 	 9.411405e+21 	 1.242453e+06 	 1.534798e+39 	 1.010209e+39 	 2.796508e+22 	 8.427745e+07
1.21661645e+01 	 2.381499e-03 	 2.926446e+03 	 1.242887e+03 	 1.381179e+09 	 9.354976e+21 	 1.228737e+06 	 1.533616e+39 	 1.009528e+39 	 2.779907e+22 	 8.346569e+07
1.21684245e+01 	 2.406302e-03 	 2.924286e+03 	 1.229560e+03 	 1.379142e+09 	 9.298784e+21 	 1.215175e+06 	 1.532430e+39 	 1.008844e+39 	 2.763373e+22 	 8.266197e+07
1.21707006e+01 	 2.431356e-03 	 2.922124e+03 	 1.216376e+03 	 1.377103e+09 	 9.242824e+21 	 1.201764e+06 	 1.531240e+39 	 1.008158e+39 	 2.746905e+22 	 8.186623e+07
1.21729929e+01 	 2.456664e-03 	 2.919959e+03 	 1.203333e+03 	 1.375063e+09 	 9.187097e+21 	 1.188503e+06 	 1.530045e+39 	 1.007470e+39 	 2.730503e+22 	 8.107838e+07
1.21753014e+01 	 2.482228e-03 	 2.917792e+03 	 1.190430e+03 	 1.373022e+09 	 9.131602e+21 	 1.175389e+06 	 1.528846e+39 	 1.006779e+39 	 2.714167e+22 	 8.029835e+07
1.21776261e+01 	 2.508051e-03 	 2.915621e+03 	 1.177665e+03 	 1.370980e+09 	 9.076340e+21 	 1.162422e+06 	 1.527642e+39 	 1.006086e+39 	 2.697897e+22 	 7.952605e+07
1.21799672e+01 	 2.534135e-03 	 2.913447e+03 	 1.165037e+03 	 1.368937e+09 	 9.021307e+21 	 1.149600e+06 	 1.526434e+39 	 1.005391e+39 	 2.681692e+22 	 7.876140e+07
1.21823250e+01 	 2.560482e-03 	 2.911271e+03 	 1.152545e+03 	 1.366892e+09 	 8.966504e+21 	 1.136921e+06 	 1.525222e+39 	 1.004693e+39 	 2.665552e+22 	 7.800434e+07
1.21846995e+01 	 2.587096e-03 	 2.909091e+03 	 1.140186e+03 	 1.364846e+09 	 8.911930e+21 	 1.124383e+06 	 1.524005e+39 	 1.003993e+39 	 2.649477e+22 	 7.725478e+07
1.21870907e+01 	 2.613979e-03 	 2.906909e+03 	 1.127960e+03 	 1.362799e+09 	 8.857584e+21 	 1.111985e+06 	 1.522784e+39 	 1.003291e+39 	 2.633468e+22 	 7.651266e+07
1.21894985e+01 	 2.641133e-03 	 2.904724e+03 	 1.115865e+03 	 1.360751e+09 	 8.803468e+21 	 1.099725e+06 	 1.521559e+39 	 1.002586e+39 	 2.617523e+22 	 7.577788e+07
1.21919235e+01 	 2.668560e-03 	 2.902535e+03 	 1.103900e+03 	 1.358702e+09 	 8.749578e+21 	 1.087602e+06 	 1.520330e+39 	 1.001879e+39 	 2.601643e+22 	 7.505038e+07
1.21943656e+01 	 2.696265e-03 	 2.900344e+03 	 1.092063e+03 	 1.356651e+09 	 8.695913e+21 	 1.075614e+06 	 1.519096e+39 	 1.001170e+39 	 2.585828e+22 	 7.433009e+07
1.21968249e+01 	 2.724249e-03 	 2.898150e+03 	 1.080353e+03 	 1.354599e+09 	 8.642474e+21 	 1.063760e+06 	 1.517858e+39 	 1.000458e+39 	 2.570076e+22 	 7.361694e+07
1.21993015e+01 	 2.752514e-03 	 2.895953e+03 	 1.068769e+03 	 1.352546e+09 	 8.589261e+21 	 1.052038e+06 	 1.516616e+39 	 9.997444e+38 	 2.554389e+22 	 7.291085e+07
1.22017954e+01 	 2.781065e-03 	 2.893752e+03 	 1.057309e+03 	 1.350491e+09 	 8.536273e+21 	 1.040447e+06 	 1.515369e+39 	 9.990283e+38 	 2.538766e+22 	 7.221175e+07
1.22043069e+01 	 2.809902e-03 	 2.891549e+03 	 1.045972e+03 	 1.348436e+09 	 8.483508e+21 	 1.028985e+06 	 1.514118e+39 	 9.983099e+38 	 2.523207e+22 	 7.151958e+07
1.22068362e+01 	 2.839030e-03 	 2.889343e+03 	 1.034756e+03 	 1.346379e+09 	 8.430965e+21 	 1.017651e+06 	 1.512863e+39 	 9.975892e+38 	 2.507711e+22 	 7.083426e+07
1.22093831e+01 	 2.868450e-03 	 2.887133e+03 	 1.023660e+03 	 1.344320e+09 	 8.378645e+21 	 1.006443e+06 	 1.511604e+39 	 9.968663e+38 	 2.492279e+22 	 7.015572e+07
1.22119481e+01 	 2.898166e-03 	 2.884921e+03 	 1.012684e+03 	 1.342261e+09 	 8.326546e+21 	 9.953606e+05 	 1.510341e+39 	 9.961412e+38 	 2.476910e+22 	 6.948390e+07
1.22145311e+01 	 2.928181e-03 	 2.882705e+03 	 1.001825e+03 	 1.340200e+09 	 8.274667e+21 	 9.844014e+05 	 1.509073e+39 	 9.954138e+38 	 2.461604e+22 	 6.881872e+07
1.22171323e+01 	 2.958497e-03 	 2.880487e+03 	 9.910829e+02 	 1.338138e+09 	 8.223009e+21 	 9.735645e+05 	 1.507801e+39 	 9.946842e+38 	 2.446361e+22 	 6.816014e+07
1.22197518e+01 	 2.989116e-03 	 2.878265e+03 	 9.804557e+02 	 1.336074e+09 	 8.171570e+21 	 9.628484e+05 	 1.506525e+39 	 9.939524e+38 	 2.431181e+22 	 6.750806e+07
1.22223896e+01 	 3.020043e-03 	 2.876040e+03 	 9.699425e+02 	 1.334010e+09 	 8.120350e+21 	 9.522517e+05 	 1.505245e+39 	 9.932184e+38 	 2.416063e+22 	 6.686244e+07
1.22250461e+01 	 3.051280e-03 	 2.873812e+03 	 9.595420e+02 	 1.331944e+09 	 8.069347e+21 	 9.417732e+05 	 1.503961e+39 	 9.924822e+38 	 2.401008e+22 	 6.622321e+07
