r (km)        	 u (km/s)    	 cs (km/s)   	 rho (g/cm3) 	 T (K)       	 P (dyne/cm2) 	 phi         	 L (erg/s)   	 L* (erg/s)  	 E (erg)     	 tau        
1.20017526e+01 	 1.701469e-03 	 3.131982e+03 	 2.012917e+03 	 1.582004e+09 	 1.599386e+22 	 1.840642e+06 	 1.675291e+39 	 1.094945e+39 	 4.768604e+22 	 1.223792e+08
1.20044115e+01 	 1.721120e-03 	 3.129332e+03 	 1.988936e+03 	 1.579328e+09 	 1.588458e+22 	 1.818087e+06 	 1.673741e+39 	 1.094060e+39 	 4.736221e+22 	 1.210796e+08
1.20070908e+01 	 1.740991e-03 	 3.126679e+03 	 1.965242e+03 	 1.576651e+09 	 1.577582e+22 	 1.795811e+06 	 1.672186e+39 	 1.093173e+39 	 4.703989e+22 	 1.197942e+08
1.20097906e+01 	 1.761085e-03 	 3.124022e+03 	 1.941829e+03 	 1.573973e+09 	 1.566758e+22 	 1.773812e+06 	 1.670624e+39 	 1.092282e+39 	 4.671907e+22 	 1.185229e+08
1.20125109e+01 	 1.781405e-03 	 3.121361e+03 	 1.918695e+03 	 1.571293e+09 	 1.555986e+22 	 1.752085e+06 	 1.669057e+39 	 1.091388e+39 	 4.639975e+22 	 1.172655e+08
1.20152519e+01 	 1.801952e-03 	 3.118697e+03 	 1.895837e+03 	 1.568611e+09 	 1.545265e+22 	 1.730628e+06 	 1.667483e+39 	 1.090491e+39 	 4.608193e+22 	 1.160219e+08
1.20180139e+01 	 1.822729e-03 	 3.116029e+03 	 1.873251e+03 	 1.565929e+09 	 1.534595e+22 	 1.709437e+06 	 1.665904e+39 	 1.089590e+39 	 4.576559e+22 	 1.147918e+08
1.20207968e+01 	 1.843739e-03 	 3.113357e+03 	 1.850935e+03 	 1.563244e+09 	 1.523977e+22 	 1.688508e+06 	 1.664319e+39 	 1.088687e+39 	 4.545074e+22 	 1.135753e+08
1.20236009e+01 	 1.864983e-03 	 3.110681e+03 	 1.828884e+03 	 1.560559e+09 	 1.513410e+22 	 1.667839e+06 	 1.662728e+39 	 1.087780e+39 	 4.513737e+22 	 1.123721e+08
1.20264264e+01 	 1.886465e-03 	 3.108002e+03 	 1.807096e+03 	 1.557871e+09 	 1.502893e+22 	 1.647426e+06 	 1.661131e+39 	 1.086870e+39 	 4.482547e+22 	 1.111820e+08
1.20292734e+01 	 1.908188e-03 	 3.105318e+03 	 1.785567e+03 	 1.555183e+09 	 1.492427e+22 	 1.627266e+06 	 1.659528e+39 	 1.085958e+39 	 4.451504e+22 	 1.100050e+08
1.20321420e+01 	 1.930152e-03 	 3.102631e+03 	 1.764295e+03 	 1.552492e+09 	 1.482011e+22 	 1.607356e+06 	 1.657920e+39 	 1.085042e+39 	 4.420609e+22 	 1.088409e+08
1.20350323e+01 	 1.952362e-03 	 3.099941e+03 	 1.743276e+03 	 1.549801e+09 	 1.471646e+22 	 1.587693e+06 	 1.656306e+39 	 1.084123e+39 	 4.389859e+22 	 1.076894e+08
1.20379448e+01 	 1.974820e-03 	 3.097246e+03 	 1.722508e+03 	 1.547107e+09 	 1.461331e+22 	 1.568273e+06 	 1.654686e+39 	 1.083201e+39 	 4.359254e+22 	 1.065506e+08
1.20408794e+01 	 1.997528e-03 	 3.094547e+03 	 1.701987e+03 	 1.544413e+09 	 1.451065e+22 	 1.549094e+06 	 1.653060e+39 	 1.082276e+39 	 4.328795e+22 	 1.054243e+08
1.20438362e+01 	 2.020489e-03 	 3.091845e+03 	 1.681711e+03 	 1.541716e+09 	 1.440850e+22 	 1.530152e+06 	 1.651429e+39 	 1.081348e+39 	 4.298481e+22 	 1.043102e+08
1.20468154e+01 	 2.043705e-03 	 3.089138e+03 	 1.661676e+03 	 1.539019e+09 	 1.430684e+22 	 1.511445e+06 	 1.649792e+39 	 1.080417e+39 	 4.268311e+22 	 1.032084e+08
1.20498174e+01 	 2.067180e-03 	 3.086428e+03 	 1.641880e+03 	 1.536319e+09 	 1.420567e+22 	 1.492970e+06 	 1.648150e+39 	 1.079483e+39 	 4.238284e+22 	 1.021186e+08
1.20528422e+01 	 2.090916e-03 	 3.083714e+03 	 1.622320e+03 	 1.533618e+09 	 1.410500e+22 	 1.474724e+06 	 1.646502e+39 	 1.078546e+39 	 4.208401e+22 	 1.010407e+08
1.20558897e+01 	 2.114915e-03 	 3.080996e+03 	 1.602992e+03 	 1.530916e+09 	 1.400482e+22 	 1.456704e+06 	 1.644848e+39 	 1.077606e+39 	 4.178662e+22 	 9.997456e+07
1.20589603e+01 	 2.139182e-03 	 3.078273e+03 	 1.583895e+03 	 1.528211e+09 	 1.390512e+22 	 1.438907e+06 	 1.643188e+39 	 1.076663e+39 	 4.149065e+22 	 9.892009e+07
1.20620542e+01 	 2.163717e-03 	 3.075547e+03 	 1.565026e+03 	 1.525506e+09 	 1.380592e+22 	 1.421330e+06 	 1.641524e+39 	 1.075718e+39 	 4.119611e+22 	 9.787714e+07
1.20651715e+01 	 2.188525e-03 	 3.072817e+03 	 1.546381e+03 	 1.522799e+09 	 1.370720e+22 	 1.403971e+06 	 1.639853e+39 	 1.074769e+39 	 4.090298e+22 	 9.684558e+07
1.20683121e+01 	 2.213608e-03 	 3.070083e+03 	 1.527959e+03 	 1.520090e+09 	 1.360897e+22 	 1.386827e+06 	 1.638177e+39 	 1.073817e+39 	 4.061128e+22 	 9.582529e+07
1.20714766e+01 	 2.238969e-03 	 3.067345e+03 	 1.509755e+03 	 1.517380e+09 	 1.351123e+22 	 1.369896e+06 	 1.636496e+39 	 1.072863e+39 	 4.032099e+22 	 9.481613e+07
1.20746650e+01 	 2.264610e-03 	 3.064602e+03 	 1.491769e+03 	 1.514668e+09 	 1.341397e+22 	 1.353174e+06 	 1.634809e+39 	 1.071906e+39 	 4.003211e+22 	 9.381799e+07
1.20778772e+01 	 2.290536e-03 	 3.061856e+03 	 1.473997e+03 	 1.511954e+09 	 1.331719e+22 	 1.336659e+06 	 1.633117e+39 	 1.070946e+39 	 3.974465e+22 	 9.283075e+07
1.20811135e+01 	 2.316748e-03 	 3.059106e+03 	 1.456437e+03 	 1.509239e+09 	 1.322089e+22 	 1.320349e+06 	 1.631419e+39 	 1.069983e+39 	 3.945859e+22 	 9.185427e+07
1.20843743e+01 	 2.343250e-03 	 3.056352e+03 	 1.439086e+03 	 1.506523e+09 	 1.312508e+22 	 1.304240e+06 	 1.629716e+39 	 1.069017e+39 	 3.917393e+22 	 9.088845e+07
1.20876595e+01 	 2.370045e-03 	 3.053593e+03 	 1.421942e+03 	 1.503805e+09 	 1.302974e+22 	 1.288331e+06 	 1.628007e+39 	 1.068049e+39 	 3.889068e+22 	 8.993316e+07
1.20909692e+01 	 2.397135e-03 	 3.050831e+03 	 1.405002e+03 	 1.501085e+09 	 1.293488e+22 	 1.272619e+06 	 1.626294e+39 	 1.067078e+39 	 3.860882e+22 	 8.898828e+07
1.20943037e+01 	 2.424525e-03 	 3.048065e+03 	 1.388263e+03 	 1.498364e+09 	 1.284050e+22 	 1.257102e+06 	 1.624574e+39 	 1.066104e+39 	 3.832836e+22 	 8.805370e+07
1.20976633e+01 	 2.452216e-03 	 3.045294e+03 	 1.371724e+03 	 1.495642e+09 	 1.274660e+22 	 1.241776e+06 	 1.622850e+39 	 1.065127e+39 	 3.804929e+22 	 8.712932e+07
1.21010481e+01 	 2.480213e-03 	 3.042519e+03 	 1.355383e+03 	 1.492918e+09 	 1.265316e+22 	 1.226640e+06 	 1.621120e+39 	 1.064148e+39 	 3.777160e+22 	 8.621500e+07
1.21044581e+01 	 2.508518e-03 	 3.039741e+03 	 1.339235e+03 	 1.490192e+09 	 1.256020e+22 	 1.211692e+06 	 1.619386e+39 	 1.063166e+39 	 3.749529e+22 	 8.531065e+07
1.21078934e+01 	 2.537134e-03 	 3.036958e+03 	 1.323281e+03 	 1.487465e+09 	 1.246771e+22 	 1.196928e+06 	 1.617646e+39 	 1.062181e+39 	 3.722037e+22 	 8.441615e+07
1.21113546e+01 	 2.566065e-03 	 3.034171e+03 	 1.307516e+03 	 1.484736e+09 	 1.237569e+22 	 1.182347e+06 	 1.615901e+39 	 1.061194e+39 	 3.694681e+22 	 8.353139e+07
1.21148418e+01 	 2.595314e-03 	 3.031380e+03 	 1.291939e+03 	 1.482005e+09 	 1.228414e+22 	 1.167947e+06 	 1.614150e+39 	 1.060204e+39 	 3.667462e+22 	 8.265627e+07
1.21183550e+01 	 2.624885e-03 	 3.028584e+03 	 1.276548e+03 	 1.479273e+09 	 1.219305e+22 	 1.153725e+06 	 1.612395e+39 	 1.059211e+39 	 3.640380e+22 	 8.179068e+07
1.21218937e+01 	 2.654780e-03 	 3.025785e+03 	 1.261340e+03 	 1.476540e+09 	 1.210244e+22 	 1.139679e+06 	 1.610635e+39 	 1.058216e+39 	 3.613436e+22 	 8.093449e+07
1.21254591e+01 	 2.685002e-03 	 3.022981e+03 	 1.246313e+03 	 1.473805e+09 	 1.201228e+22 	 1.125806e+06 	 1.608869e+39 	 1.057218e+39 	 3.586627e+22 	 8.008763e+07
1.21290510e+01 	 2.715556e-03 	 3.020174e+03 	 1.231465e+03 	 1.471069e+09 	 1.192259e+22 	 1.112105e+06 	 1.607099e+39 	 1.056218e+39 	 3.559954e+22 	 7.924999e+07
1.21326696e+01 	 2.746445e-03 	 3.017362e+03 	 1.216794e+03 	 1.468330e+09 	 1.183336e+22 	 1.098574e+06 	 1.605324e+39 	 1.055216e+39 	 3.533417e+22 	 7.842145e+07
1.21363146e+01 	 2.777672e-03 	 3.014546e+03 	 1.202298e+03 	 1.465591e+09 	 1.174460e+22 	 1.085209e+06 	 1.603543e+39 	 1.054210e+39 	 3.507016e+22 	 7.760192e+07
1.21399860e+01 	 2.809241e-03 	 3.011726e+03 	 1.187975e+03 	 1.462850e+09 	 1.165630e+22 	 1.072011e+06 	 1.601758e+39 	 1.053203e+39 	 3.480752e+22 	 7.679128e+07
1.21436847e+01 	 2.841155e-03 	 3.008901e+03 	 1.173822e+03 	 1.460108e+09 	 1.156846e+22 	 1.058975e+06 	 1.599968e+39 	 1.052193e+39 	 3.454622e+22 	 7.598946e+07
1.21474107e+01 	 2.873418e-03 	 3.006073e+03 	 1.159838e+03 	 1.457364e+09 	 1.148108e+22 	 1.046100e+06 	 1.598174e+39 	 1.051180e+39 	 3.428627e+22 	 7.519635e+07
1.21511639e+01 	 2.906033e-03 	 3.003240e+03 	 1.146020e+03 	 1.454619e+09 	 1.139416e+22 	 1.033385e+06 	 1.596374e+39 	 1.050165e+39 	 3.402767e+22 	 7.441185e+07
1.21549443e+01 	 2.939004e-03 	 3.000403e+03 	 1.132367e+03 	 1.451872e+09 	 1.130771e+22 	 1.020827e+06 	 1.594570e+39 	 1.049148e+39 	 3.377043e+22 	 7.363586e+07
1.21587520e+01 	 2.972335e-03 	 2.997563e+03 	 1.118877e+03 	 1.449124e+09 	 1.122171e+22 	 1.008424e+06 	 1.592761e+39 	 1.048128e+39 	 3.351454e+22 	 7.286829e+07
1.21625874e+01 	 3.006029e-03 	 2.994718e+03 	 1.105547e+03 	 1.446375e+09 	 1.113617e+22 	 9.961745e+05 	 1.590947e+39 	 1.047106e+39 	 3.325999e+22 	 7.210905e+07
1.21664506e+01 	 3.040090e-03 	 2.991869e+03 	 1.092377e+03 	 1.443625e+09 	 1.105108e+22 	 9.840763e+05 	 1.589128e+39 	 1.046082e+39 	 3.300679e+22 	 7.135803e+07
1.21703417e+01 	 3.074523e-03 	 2.989016e+03 	 1.079363e+03 	 1.440873e+09 	 1.096646e+22 	 9.721276e+05 	 1.587305e+39 	 1.045055e+39 	 3.275493e+22 	 7.061516e+07
1.21742611e+01 	 3.109329e-03 	 2.986159e+03 	 1.066504e+03 	 1.438120e+09 	 1.088228e+22 	 9.603266e+05 	 1.585477e+39 	 1.044026e+39 	 3.250440e+22 	 6.988034e+07
1.21782090e+01 	 3.144514e-03 	 2.983298e+03 	 1.053798e+03 	 1.435365e+09 	 1.079856e+22 	 9.486714e+05 	 1.583645e+39 	 1.042995e+39 	 3.225520e+22 	 6.915349e+07
1.21821850e+01 	 3.180081e-03 	 2.980433e+03 	 1.041244e+03 	 1.432610e+09 	 1.071530e+22 	 9.371602e+05 	 1.581808e+39 	 1.041962e+39 	 3.200735e+22 	 6.843450e+07
1.21861896e+01 	 3.216035e-03 	 2.977564e+03 	 1.028839e+03 	 1.429853e+09 	 1.063249e+22 	 9.257912e+05 	 1.579967e+39 	 1.040926e+39 	 3.176084e+22 	 6.772329e+07
1.21902229e+01 	 3.252379e-03 	 2.974691e+03 	 1.016582e+03 	 1.427095e+09 	 1.055014e+22 	 9.145626e+05 	 1.578121e+39 	 1.039888e+39 	 3.151566e+22 	 6.701979e+07
1.21942854e+01 	 3.289116e-03 	 2.971814e+03 	 1.004472e+03 	 1.424336e+09 	 1.046823e+22 	 9.034728e+05 	 1.576271e+39 	 1.038848e+39 	 3.127180e+22 	 6.632389e+07
1.21983770e+01 	 3.326252e-03 	 2.968933e+03 	 9.925049e+02 	 1.421575e+09 	 1.038677e+22 	 8.925200e+05 	 1.574416e+39 	 1.037806e+39 	 3.102926e+22 	 6.563553e+07
1.22024980e+01 	 3.363789e-03 	 2.966047e+03 	 9.806809e+02 	 1.418813e+09 	 1.030576e+22 	 8.817024e+05 	 1.572557e+39 	 1.036761e+39 	 3.078803e+22 	 6.495461e+07
1.22066491e+01 	 3.401733e-03 	 2.963158e+03 	 9.689977e+02 	 1.416050e+09 	 1.022519e+22 	 8.710184e+05 	 1.570694e+39 	 1.035715e+39 	 3.054811e+22 	 6.428107e+07
1.22108299e+01 	 3.440086e-03 	 2.960264e+03 	 9.574537e+02 	 1.413286e+09 	 1.014506e+22 	 8.604664e+05 	 1.568826e+39 	 1.034666e+39 	 3.030949e+22 	 6.361481e+07
1.22150403e+01 	 3.478854e-03 	 2.957366e+03 	 9.460472e+02 	 1.410520e+09 	 1.006538e+22 	 8.500446e+05 	 1.566955e+39 	 1.033616e+39 	 3.007219e+22 	 6.295574e+07
1.22192811e+01 	 3.518040e-03 	 2.954464e+03 	 9.347766e+02 	 1.407754e+09 	 9.986138e+21 	 8.397514e+05 	 1.565079e+39 	 1.032563e+39 	 2.983618e+22 	 6.230381e+07
1.22235520e+01 	 3.557649e-03 	 2.951558e+03 	 9.236403e+02 	 1.404986e+09 	 9.907338e+21 	 8.295854e+05 	 1.563199e+39 	 1.031509e+39 	 2.960147e+22 	 6.165891e+07
1.22278528e+01 	 3.597685e-03 	 2.948648e+03 	 9.126366e+02 	 1.402217e+09 	 9.828983e+21 	 8.195447e+05 	 1.561314e+39 	 1.030452e+39 	 2.936807e+22 	 6.102097e+07
1.22321837e+01 	 3.638152e-03 	 2.945735e+03 	 9.017641e+02 	 1.399447e+09 	 9.751069e+21 	 8.096279e+05 	 1.559426e+39 	 1.029394e+39 	 2.913598e+22 	 6.038992e+07
1.22365450e+01 	 3.679056e-03 	 2.942817e+03 	 8.910210e+02 	 1.396675e+09 	 9.673599e+21 	 7.998335e+05 	 1.557534e+39 	 1.028333e+39 	 2.890519e+22 	 5.976567e+07
1.22409369e+01 	 3.720399e-03 	 2.939895e+03 	 8.804060e+02 	 1.393903e+09 	 9.596567e+21 	 7.901600e+05 	 1.555638e+39 	 1.027271e+39 	 2.867570e+22 	 5.914815e+07
1.22453595e+01 	 3.762188e-03 	 2.936969e+03 	 8.699174e+02 	 1.391130e+09 	 9.519976e+21 	 7.806057e+05 	 1.553738e+39 	 1.026207e+39 	 2.844751e+22 	 5.853729e+07
1.22498129e+01 	 3.804425e-03 	 2.934039e+03 	 8.595538e+02 	 1.388356e+09 	 9.443823e+21 	 7.711693e+05 	 1.551833e+39 	 1.025141e+39 	 2.822061e+22 	 5.793301e+07
1.22542974e+01 	 3.847116e-03 	 2.931106e+03 	 8.493136e+02 	 1.385581e+09 	 9.368108e+21 	 7.618493e+05 	 1.549926e+39 	 1.024073e+39 	 2.799500e+22 	 5.733524e+07
1.22588131e+01 	 3.890264e-03 	 2.928168e+03 	 8.391954e+02 	 1.382805e+09 	 9.292830e+21 	 7.526442e+05 	 1.548014e+39 	 1.023003e+39 	 2.777069e+22 	 5.674391e+07
1.22633598e+01 	 3.933876e-03 	 2.925227e+03 	 8.291978e+02 	 1.380029e+09 	 9.217989e+21 	 7.435526e+05 	 1.546098e+39 	 1.021932e+39 	 2.754766e+22 	 5.615893e+07
1.22679386e+01 	 3.977955e-03 	 2.922281e+03 	 8.193193e+02 	 1.377251e+09 	 9.143580e+21 	 7.345732e+05 	 1.544179e+39 	 1.020858e+39 	 2.732591e+22 	 5.558026e+07
1.22725487e+01 	 4.022506e-03 	 2.919332e+03 	 8.095584e+02 	 1.374472e+09 	 9.069608e+21 	 7.257044e+05 	 1.542255e+39 	 1.019783e+39 	 2.710545e+22 	 5.500781e+07
1.22771903e+01 	 4.067533e-03 	 2.916379e+03 	 7.999139e+02 	 1.371693e+09 	 8.996071e+21 	 7.169449e+05 	 1.540329e+39 	 1.018706e+39 	 2.688628e+22 	 5.444151e+07
1.22818645e+01 	 4.113042e-03 	 2.913422e+03 	 7.903842e+02 	 1.368913e+09 	 8.922962e+21 	 7.082934e+05 	 1.538398e+39 	 1.017628e+39 	 2.666837e+22 	 5.388130e+07
1.22865704e+01 	 4.159037e-03 	 2.910461e+03 	 7.809681e+02 	 1.366132e+09 	 8.850287e+21 	 6.997485e+05 	 1.536464e+39 	 1.016548e+39 	 2.645174e+22 	 5.332711e+07
1.22913083e+01 	 4.205524e-03 	 2.907497e+03 	 7.716641e+02 	 1.363351e+09 	 8.778043e+21 	 6.913089e+05 	 1.534526e+39 	 1.015466e+39 	 2.623639e+22 	 5.277887e+07
1.22960792e+01 	 4.252506e-03 	 2.904528e+03 	 7.624710e+02 	 1.360568e+09 	 8.706225e+21 	 6.829733e+05 	 1.532585e+39 	 1.014382e+39 	 2.602230e+22 	 5.223652e+07
1.23008826e+01 	 4.299989e-03 	 2.901556e+03 	 7.533875e+02 	 1.357785e+09 	 8.634835e+21 	 6.747403e+05 	 1.530640e+39 	 1.013297e+39 	 2.580947e+22 	 5.169999e+07
1.23057185e+01 	 4.347978e-03 	 2.898580e+03 	 7.444121e+02 	 1.355001e+09 	 8.563873e+21 	 6.666088e+05 	 1.528692e+39 	 1.012211e+39 	 2.559791e+22 	 5.116921e+07
1.23105877e+01 	 4.396478e-03 	 2.895600e+03 	 7.355436e+02 	 1.352217e+09 	 8.493335e+21 	 6.585774e+05 	 1.526741e+39 	 1.011122e+39 	 2.538760e+22 	 5.064414e+07
1.23154895e+01 	 4.445494e-03 	 2.892617e+03 	 7.267808e+02 	 1.349432e+09 	 8.423223e+21 	 6.506449e+05 	 1.524786e+39 	 1.010033e+39 	 2.517855e+22 	 5.012469e+07
1.23204247e+01 	 4.495030e-03 	 2.889630e+03 	 7.181225e+02 	 1.346646e+09 	 8.353534e+21 	 6.428100e+05 	 1.522828e+39 	 1.008942e+39 	 2.497076e+22 	 4.961080e+07
1.23253932e+01 	 4.545093e-03 	 2.886638e+03 	 7.095672e+02 	 1.343860e+09 	 8.284269e+21 	 6.350716e+05 	 1.520866e+39 	 1.007849e+39 	 2.476421e+22 	 4.910243e+07
1.23303947e+01 	 4.595688e-03 	 2.883644e+03 	 7.011139e+02 	 1.341073e+09 	 8.215428e+21 	 6.274285e+05 	 1.518901e+39 	 1.006755e+39 	 2.455893e+22 	 4.859949e+07
1.23354302e+01 	 4.646819e-03 	 2.880645e+03 	 6.927613e+02 	 1.338285e+09 	 8.147006e+21 	 6.198794e+05 	 1.516934e+39 	 1.005659e+39 	 2.435488e+22 	 4.810194e+07
1.23404991e+01 	 4.698493e-03 	 2.877644e+03 	 6.845082e+02 	 1.335498e+09 	 8.079008e+21 	 6.124232e+05 	 1.514962e+39 	 1.004562e+39 	 2.415209e+22 	 4.760971e+07
1.23456013e+01 	 4.750714e-03 	 2.874638e+03 	 6.763534e+02 	 1.332709e+09 	 8.011433e+21 	 6.050587e+05 	 1.512988e+39 	 1.003464e+39 	 2.395055e+22 	 4.712273e+07
1.23507379e+01 	 4.803488e-03 	 2.871629e+03 	 6.682957e+02 	 1.329921e+09 	 7.944276e+21 	 5.977849e+05 	 1.511011e+39 	 1.002364e+39 	 2.375025e+22 	 4.664097e+07
1.23559082e+01 	 4.856820e-03 	 2.868617e+03 	 6.603341e+02 	 1.327132e+09 	 7.877540e+21 	 5.906005e+05 	 1.509030e+39 	 1.001263e+39 	 2.355120e+22 	 4.616435e+07
1.23611125e+01 	 4.910717e-03 	 2.865601e+03 	 6.524673e+02 	 1.324343e+09 	 7.811225e+21 	 5.835044e+05 	 1.507047e+39 	 1.000160e+39 	 2.335339e+22 	 4.569282e+07
1.23663511e+01 	 4.965182e-03 	 2.862582e+03 	 6.446942e+02 	 1.321554e+09 	 7.745326e+21 	 5.764956e+05 	 1.505060e+39 	 9.990561e+38 	 2.315681e+22 	 4.522631e+07
1.23716240e+01 	 5.020223e-03 	 2.859559e+03 	 6.370138e+02 	 1.318764e+09 	 7.679843e+21 	 5.695730e+05 	 1.503071e+39 	 9.979509e+38 	 2.296147e+22 	 4.476479e+07
1.23769321e+01 	 5.075844e-03 	 2.856532e+03 	 6.294248e+02 	 1.315974e+09 	 7.614768e+21 	 5.627355e+05 	 1.501078e+39 	 9.968444e+38 	 2.276734e+22 	 4.430820e+07
1.23822753e+01 	 5.132051e-03 	 2.853502e+03 	 6.219262e+02 	 1.313184e+09 	 7.550104e+21 	 5.559820e+05 	 1.499083e+39 	 9.957368e+38 	 2.257443e+22 	 4.385648e+07
1.23876542e+01 	 5.188849e-03 	 2.850469e+03 	 6.145170e+02 	 1.310393e+09 	 7.485843e+21 	 5.493115e+05 	 1.497086e+39 	 9.946281e+38 	 2.238271e+22 	 4.340958e+07
1.23930686e+01 	 5.246244e-03 	 2.847431e+03 	 6.071960e+02 	 1.307602e+09 	 7.421989e+21 	 5.427229e+05 	 1.495085e+39 	 9.935184e+38 	 2.219219e+22 	 4.296745e+07
1.23985181e+01 	 5.304244e-03 	 2.844390e+03 	 5.999623e+02 	 1.304811e+09 	 7.358545e+21 	 5.362153e+05 	 1.493082e+39 	 9.924074e+38 	 2.200290e+22 	 4.253002e+07
1.24040024e+01 	 5.362853e-03 	 2.841346e+03 	 5.928147e+02 	 1.302019e+09 	 7.295513e+21 	 5.297876e+05 	 1.491076e+39 	 9.912953e+38 	 2.181482e+22 	 4.209725e+07
1.24095219e+01 	 5.422078e-03 	 2.838299e+03 	 5.857523e+02 	 1.299228e+09 	 7.232890e+21 	 5.234389e+05 	 1.489068e+39 	 9.901820e+38 	 2.162795e+22 	 4.166908e+07
1.24150759e+01 	 5.481925e-03 	 2.835249e+03 	 5.787741e+02 	 1.296437e+09 	 7.170683e+21 	 5.171680e+05 	 1.487057e+39 	 9.890675e+38 	 2.144232e+22 	 4.124546e+07
1.24206651e+01 	 5.542401e-03 	 2.832195e+03 	 5.718789e+02 	 1.293646e+09 	 7.108884e+21 	 5.109741e+05 	 1.485043e+39 	 9.879518e+38 	 2.125791e+22 	 4.082633e+07
1.24262899e+01 	 5.603511e-03 	 2.829139e+03 	 5.650659e+02 	 1.290856e+09 	 7.047492e+21 	 5.048563e+05 	 1.483026e+39 	 9.868350e+38 	 2.107470e+22 	 4.041165e+07
1.24319508e+01 	 5.665260e-03 	 2.826079e+03 	 5.583341e+02 	 1.288065e+09 	 6.986503e+21 	 4.988135e+05 	 1.481007e+39 	 9.857172e+38 	 2.089268e+22 	 4.000138e+07
1.24376477e+01 	 5.727656e-03 	 2.823016e+03 	 5.516825e+02 	 1.285275e+09 	 6.925915e+21 	 4.928448e+05 	 1.478986e+39 	 9.845984e+38 	 2.071186e+22 	 3.959546e+07
1.24433826e+01 	 5.790702e-03 	 2.819950e+03 	 5.451101e+02 	 1.282484e+09 	 6.865715e+21 	 4.869494e+05 	 1.476962e+39 	 9.834788e+38 	 2.053218e+22 	 3.919387e+07
1.24491553e+01 	 5.854406e-03 	 2.816879e+03 	 5.386160e+02 	 1.279692e+09 	 6.805902e+21 	 4.811264e+05 	 1.474937e+39 	 9.823586e+38 	 2.035366e+22 	 3.879655e+07
1.24549650e+01 	 5.918774e-03 	 2.813805e+03 	 5.321993e+02 	 1.276901e+09 	 6.746483e+21 	 4.753747e+05 	 1.472909e+39 	 9.812375e+38 	 2.017630e+22 	 3.840345e+07
1.24608115e+01 	 5.983813e-03 	 2.810728e+03 	 5.258590e+02 	 1.274109e+09 	 6.687457e+21 	 4.696936e+05 	 1.470879e+39 	 9.801156e+38 	 2.000011e+22 	 3.801452e+07
1.24666946e+01 	 6.049531e-03 	 2.807648e+03 	 5.195942e+02 	 1.271318e+09 	 6.628828e+21 	 4.640820e+05 	 1.468847e+39 	 9.789929e+38 	 1.982510e+22 	 3.762971e+07
1.24726142e+01 	 6.115934e-03 	 2.804564e+03 	 5.134041e+02 	 1.268527e+09 	 6.570594e+21 	 4.585392e+05 	 1.466813e+39 	 9.778693e+38 	 1.965126e+22 	 3.724897e+07
1.24785701e+01 	 6.183029e-03 	 2.801478e+03 	 5.072878e+02 	 1.265737e+09 	 6.512759e+21 	 4.530643e+05 	 1.464777e+39 	 9.767448e+38 	 1.947861e+22 	 3.687225e+07
1.24845620e+01 	 6.250823e-03 	 2.798389e+03 	 5.012443e+02 	 1.262948e+09 	 6.455323e+21 	 4.476565e+05 	 1.462738e+39 	 9.756193e+38 	 1.930714e+22 	 3.649951e+07
1.24905901e+01 	 6.319323e-03 	 2.795298e+03 	 4.952728e+02 	 1.260159e+09 	 6.398284e+21 	 4.423149e+05 	 1.460697e+39 	 9.744929e+38 	 1.913685e+22 	 3.613071e+07
1.24966551e+01 	 6.388535e-03 	 2.792203e+03 	 4.893724e+02 	 1.257370e+09 	 6.341639e+21 	 4.370386e+05 	 1.458655e+39 	 9.733657e+38 	 1.896773e+22 	 3.576579e+07
1.25027569e+01 	 6.458467e-03 	 2.789107e+03 	 4.835423e+02 	 1.254583e+09 	 6.285386e+21 	 4.318270e+05 	 1.456610e+39 	 9.722375e+38 	 1.879978e+22 	 3.540473e+07
