r (km)        	 u (km/s)    	 cs (km/s)   	 rho (g/cm3) 	 T (K)       	 P (dyne/cm2) 	 phi         	 L (erg/s)   	 L* (erg/s)  	 E (erg)     	 tau        
1.20155593e+01 	 6.100016e-03 	 3.133367e+03 	 7.910211e+02 	 1.583403e+09 	 1.593003e+22 	 5.136265e+05 	 1.707465e+39 	 1.116653e+39 	 4.767374e+22 	 4.811930e+07
1.20260738e+01 	 6.162345e-03 	 3.128975e+03 	 7.814710e+02 	 1.578968e+09 	 1.575200e+22 	 5.077190e+05 	 1.704050e+39 	 1.114935e+39 	 4.714137e+22 	 4.766573e+07
1.20366328e+01 	 6.225271e-03 	 3.124585e+03 	 7.720362e+02 	 1.574540e+09 	 1.557576e+22 	 5.018817e+05 	 1.700640e+39 	 1.113220e+39 	 4.661435e+22 	 4.721661e+07
1.20472356e+01 	 6.288801e-03 	 3.120196e+03 	 7.627153e+02 	 1.570120e+09 	 1.540131e+22 	 4.961139e+05 	 1.697235e+39 	 1.111507e+39 	 4.609267e+22 	 4.677190e+07
1.20578815e+01 	 6.352941e-03 	 3.115808e+03 	 7.535070e+02 	 1.565707e+09 	 1.522863e+22 	 4.904145e+05 	 1.693834e+39 	 1.109796e+39 	 4.557629e+22 	 4.633155e+07
1.20685703e+01 	 6.417697e-03 	 3.111422e+03 	 7.444098e+02 	 1.561302e+09 	 1.505772e+22 	 4.847829e+05 	 1.690438e+39 	 1.108087e+39 	 4.506518e+22 	 4.589550e+07
1.20793018e+01 	 6.483074e-03 	 3.107038e+03 	 7.354225e+02 	 1.556905e+09 	 1.488856e+22 	 4.792181e+05 	 1.687047e+39 	 1.106380e+39 	 4.455930e+22 	 4.546372e+07
1.20900755e+01 	 6.549080e-03 	 3.102656e+03 	 7.265436e+02 	 1.552517e+09 	 1.472115e+22 	 4.737193e+05 	 1.683659e+39 	 1.104675e+39 	 4.405865e+22 	 4.503614e+07
1.21008919e+01 	 6.615719e-03 	 3.098276e+03 	 7.177720e+02 	 1.548137e+09 	 1.455546e+22 	 4.682856e+05 	 1.680277e+39 	 1.102972e+39 	 4.356314e+22 	 4.461273e+07
1.21117513e+01 	 6.682996e-03 	 3.093898e+03 	 7.091063e+02 	 1.543765e+09 	 1.439148e+22 	 4.629165e+05 	 1.676898e+39 	 1.101271e+39 	 4.307274e+22 	 4.419345e+07
1.21226541e+01 	 6.750918e-03 	 3.089522e+03 	 7.005452e+02 	 1.539401e+09 	 1.422920e+22 	 4.576109e+05 	 1.673524e+39 	 1.099572e+39 	 4.258739e+22 	 4.377826e+07
1.21335999e+01 	 6.819489e-03 	 3.085148e+03 	 6.920874e+02 	 1.535045e+09 	 1.406859e+22 	 4.523682e+05 	 1.670155e+39 	 1.097875e+39 	 4.210706e+22 	 4.336712e+07
1.21445904e+01 	 6.888715e-03 	 3.080776e+03 	 6.837318e+02 	 1.530697e+09 	 1.390963e+22 	 4.471877e+05 	 1.666791e+39 	 1.096180e+39 	 4.163165e+22 	 4.295999e+07
1.21556257e+01 	 6.958601e-03 	 3.076405e+03 	 6.754770e+02 	 1.526357e+09 	 1.375230e+22 	 4.420686e+05 	 1.663432e+39 	 1.094488e+39 	 4.116112e+22 	 4.255684e+07
1.21667052e+01 	 7.029153e-03 	 3.072036e+03 	 6.673219e+02 	 1.522024e+09 	 1.359660e+22 	 4.370100e+05 	 1.660077e+39 	 1.092798e+39 	 4.069544e+22 	 4.215762e+07
1.21778286e+01 	 7.100379e-03 	 3.067668e+03 	 6.592653e+02 	 1.517700e+09 	 1.344252e+22 	 4.320113e+05 	 1.656728e+39 	 1.091110e+39 	 4.023458e+22 	 4.176229e+07
1.21889957e+01 	 7.172284e-03 	 3.063303e+03 	 6.513059e+02 	 1.513384e+09 	 1.329003e+22 	 4.270717e+05 	 1.653384e+39 	 1.089425e+39 	 3.977851e+22 	 4.137080e+07
1.22002063e+01 	 7.244875e-03 	 3.058940e+03 	 6.434426e+02 	 1.509076e+09 	 1.313914e+22 	 4.221905e+05 	 1.650044e+39 	 1.087741e+39 	 3.932719e+22 	 4.098312e+07
1.22114601e+01 	 7.318159e-03 	 3.054580e+03 	 6.356742e+02 	 1.504777e+09 	 1.298983e+22 	 4.173670e+05 	 1.646708e+39 	 1.086060e+39 	 3.888061e+22 	 4.059920e+07
1.22227574e+01 	 7.392141e-03 	 3.050221e+03 	 6.279997e+02 	 1.500486e+09 	 1.284209e+22 	 4.126004e+05 	 1.643378e+39 	 1.084380e+39 	 3.843870e+22 	 4.021900e+07
1.22340988e+01 	 7.466827e-03 	 3.045865e+03 	 6.204178e+02 	 1.496203e+09 	 1.269589e+22 	 4.078901e+05 	 1.640052e+39 	 1.082703e+39 	 3.800141e+22 	 3.984249e+07
1.22454847e+01 	 7.542223e-03 	 3.041511e+03 	 6.129274e+02 	 1.491928e+09 	 1.255122e+22 	 4.032355e+05 	 1.636731e+39 	 1.081028e+39 	 3.756870e+22 	 3.946964e+07
1.22569151e+01 	 7.618336e-03 	 3.037159e+03 	 6.055275e+02 	 1.487662e+09 	 1.240807e+22 	 3.986357e+05 	 1.633415e+39 	 1.079355e+39 	 3.714052e+22 	 3.910040e+07
1.22683905e+01 	 7.695170e-03 	 3.032810e+03 	 5.982169e+02 	 1.483404e+09 	 1.226642e+22 	 3.940903e+05 	 1.630104e+39 	 1.077684e+39 	 3.671681e+22 	 3.873475e+07
1.22799114e+01 	 7.772733e-03 	 3.028462e+03 	 5.909945e+02 	 1.479153e+09 	 1.212625e+22 	 3.895985e+05 	 1.626798e+39 	 1.076016e+39 	 3.629752e+22 	 3.837265e+07
1.22914774e+01 	 7.851030e-03 	 3.024116e+03 	 5.838594e+02 	 1.474911e+09 	 1.198755e+22 	 3.851596e+05 	 1.623498e+39 	 1.074350e+39 	 3.588262e+22 	 3.801407e+07
1.23030883e+01 	 7.930070e-03 	 3.019772e+03 	 5.768104e+02 	 1.470677e+09 	 1.185031e+22 	 3.807730e+05 	 1.620203e+39 	 1.072687e+39 	 3.547209e+22 	 3.765895e+07
1.23147440e+01 	 8.009858e-03 	 3.015431e+03 	 5.698465e+02 	 1.466452e+09 	 1.171451e+22 	 3.764382e+05 	 1.616913e+39 	 1.071026e+39 	 3.506589e+22 	 3.730728e+07
1.23264443e+01 	 8.090403e-03 	 3.011092e+03 	 5.629667e+02 	 1.462235e+09 	 1.158016e+22 	 3.721543e+05 	 1.613628e+39 	 1.069367e+39 	 3.466398e+22 	 3.695901e+07
1.23381894e+01 	 8.171709e-03 	 3.006755e+03 	 5.561699e+02 	 1.458026e+09 	 1.144723e+22 	 3.679208e+05 	 1.610348e+39 	 1.067710e+39 	 3.426633e+22 	 3.661410e+07
1.23499793e+01 	 8.253786e-03 	 3.002421e+03 	 5.494553e+02 	 1.453825e+09 	 1.131571e+22 	 3.637372e+05 	 1.607073e+39 	 1.066056e+39 	 3.387290e+22 	 3.627252e+07
1.23618140e+01 	 8.336638e-03 	 2.998089e+03 	 5.428216e+02 	 1.449633e+09 	 1.118559e+22 	 3.596027e+05 	 1.603802e+39 	 1.064403e+39 	 3.348366e+22 	 3.593424e+07
1.23736938e+01 	 8.420273e-03 	 2.993760e+03 	 5.362681e+02 	 1.445450e+09 	 1.105686e+22 	 3.555169e+05 	 1.600537e+39 	 1.062753e+39 	 3.309855e+22 	 3.559923e+07
1.23856191e+01 	 8.504698e-03 	 2.989433e+03 	 5.297937e+02 	 1.441275e+09 	 1.092950e+22 	 3.514791e+05 	 1.597278e+39 	 1.061105e+39 	 3.271754e+22 	 3.526745e+07
1.23975902e+01 	 8.589919e-03 	 2.985109e+03 	 5.233974e+02 	 1.437108e+09 	 1.080349e+22 	 3.474887e+05 	 1.594023e+39 	 1.059460e+39 	 3.234058e+22 	 3.493888e+07
1.24096063e+01 	 8.675944e-03 	 2.980787e+03 	 5.170784e+02 	 1.432949e+09 	 1.067883e+22 	 3.435452e+05 	 1.590773e+39 	 1.057816e+39 	 3.196765e+22 	 3.461347e+07
1.24216685e+01 	 8.762779e-03 	 2.976467e+03 	 5.108356e+02 	 1.428799e+09 	 1.055550e+22 	 3.396480e+05 	 1.587529e+39 	 1.056176e+39 	 3.159869e+22 	 3.429120e+07
1.24337774e+01 	 8.850430e-03 	 2.972150e+03 	 5.046683e+02 	 1.424658e+09 	 1.043349e+22 	 3.357965e+05 	 1.584290e+39 	 1.054537e+39 	 3.123365e+22 	 3.397204e+07
1.24459326e+01 	 8.938905e-03 	 2.967835e+03 	 4.985754e+02 	 1.420524e+09 	 1.031277e+22 	 3.319903e+05 	 1.581057e+39 	 1.052902e+39 	 3.087250e+22 	 3.365597e+07
1.24581335e+01 	 9.028213e-03 	 2.963522e+03 	 4.925560e+02 	 1.416399e+09 	 1.019335e+22 	 3.282286e+05 	 1.577829e+39 	 1.051268e+39 	 3.051522e+22 	 3.334293e+07
1.24703802e+01 	 9.118361e-03 	 2.959213e+03 	 4.866093e+02 	 1.412282e+09 	 1.007521e+22 	 3.245110e+05 	 1.574607e+39 	 1.049637e+39 	 3.016178e+22 	 3.303291e+07
1.24826722e+01 	 9.209357e-03 	 2.954905e+03 	 4.807344e+02 	 1.408174e+09 	 9.958348e+21 	 3.208370e+05 	 1.571390e+39 	 1.048009e+39 	 2.981213e+22 	 3.272586e+07
1.24950097e+01 	 9.301208e-03 	 2.950601e+03 	 4.749305e+02 	 1.404074e+09 	 9.842743e+21 	 3.172059e+05 	 1.568178e+39 	 1.046382e+39 	 2.946626e+22 	 3.242177e+07
1.25073927e+01 	 9.393923e-03 	 2.946299e+03 	 4.691966e+02 	 1.399983e+09 	 9.728388e+21 	 3.136174e+05 	 1.564972e+39 	 1.044758e+39 	 2.912412e+22 	 3.212059e+07
1.25198215e+01 	 9.487509e-03 	 2.942000e+03 	 4.635319e+02 	 1.395900e+09 	 9.615269e+21 	 3.100708e+05 	 1.561771e+39 	 1.043137e+39 	 2.878568e+22 	 3.182231e+07
1.25322962e+01 	 9.581972e-03 	 2.937704e+03 	 4.579357e+02 	 1.391826e+09 	 9.503376e+21 	 3.065657e+05 	 1.558575e+39 	 1.041518e+39 	 2.845090e+22 	 3.152689e+07
1.25448172e+01 	 9.677321e-03 	 2.933410e+03 	 4.524070e+02 	 1.387761e+09 	 9.392696e+21 	 3.031015e+05 	 1.555384e+39 	 1.039901e+39 	 2.811974e+22 	 3.123430e+07
1.25573841e+01 	 9.773564e-03 	 2.929119e+03 	 4.469450e+02 	 1.383704e+09 	 9.283217e+21 	 2.996779e+05 	 1.552199e+39 	 1.038286e+39 	 2.779218e+22 	 3.094451e+07
1.25699982e+01 	 9.870707e-03 	 2.924831e+03 	 4.415490e+02 	 1.379656e+09 	 9.174925e+21 	 2.962943e+05 	 1.549020e+39 	 1.036674e+39 	 2.746816e+22 	 3.065751e+07
1.25826595e+01 	 9.968757e-03 	 2.920546e+03 	 4.362181e+02 	 1.375616e+09 	 9.067808e+21 	 2.929502e+05 	 1.545845e+39 	 1.035064e+39 	 2.714766e+22 	 3.037326e+07
1.25953676e+01 	 1.006772e-02 	 2.916263e+03 	 4.309516e+02 	 1.371585e+09 	 8.961857e+21 	 2.896451e+05 	 1.542677e+39 	 1.033456e+39 	 2.683064e+22 	 3.009173e+07
1.26081226e+01 	 1.016762e-02 	 2.911984e+03 	 4.257487e+02 	 1.367562e+09 	 8.857059e+21 	 2.863787e+05 	 1.539513e+39 	 1.031851e+39 	 2.651707e+22 	 2.981290e+07
1.26209255e+01 	 1.026844e-02 	 2.907707e+03 	 4.206086e+02 	 1.363547e+09 	 8.753401e+21 	 2.831504e+05 	 1.536356e+39 	 1.030249e+39 	 2.620690e+22 	 2.953674e+07
1.26337759e+01 	 1.037020e-02 	 2.903432e+03 	 4.155305e+02 	 1.359542e+09 	 8.650872e+21 	 2.799597e+05 	 1.533204e+39 	 1.028649e+39 	 2.590011e+22 	 2.926323e+07
1.26466734e+01 	 1.047291e-02 	 2.899161e+03 	 4.105138e+02 	 1.355544e+09 	 8.549464e+21 	 2.768062e+05 	 1.530057e+39 	 1.027051e+39 	 2.559667e+22 	 2.899233e+07
1.26596182e+01 	 1.057658e-02 	 2.894892e+03 	 4.055576e+02 	 1.351555e+09 	 8.449165e+21 	 2.736895e+05 	 1.526916e+39 	 1.025456e+39 	 2.529655e+22 	 2.872403e+07
1.26726107e+01 	 1.068122e-02 	 2.890626e+03 	 4.006613e+02 	 1.347575e+09 	 8.349963e+21 	 2.706091e+05 	 1.523781e+39 	 1.023863e+39 	 2.499971e+22 	 2.845829e+07
1.26856507e+01 	 1.078683e-02 	 2.886363e+03 	 3.958241e+02 	 1.343603e+09 	 8.251849e+21 	 2.675646e+05 	 1.520651e+39 	 1.022273e+39 	 2.470612e+22 	 2.819509e+07
1.26987381e+01 	 1.089342e-02 	 2.882103e+03 	 3.910452e+02 	 1.339640e+09 	 8.154812e+21 	 2.645555e+05 	 1.517527e+39 	 1.020686e+39 	 2.441575e+22 	 2.793440e+07
1.27118729e+01 	 1.100100e-02 	 2.877846e+03 	 3.863241e+02 	 1.335686e+09 	 8.058843e+21 	 2.615814e+05 	 1.514408e+39 	 1.019100e+39 	 2.412857e+22 	 2.767619e+07
1.27250555e+01 	 1.110958e-02 	 2.873592e+03 	 3.816600e+02 	 1.331740e+09 	 7.963930e+21 	 2.586419e+05 	 1.511295e+39 	 1.017517e+39 	 2.384455e+22 	 2.742046e+07
1.27382860e+01 	 1.121918e-02 	 2.869341e+03 	 3.770522e+02 	 1.327802e+09 	 7.870062e+21 	 2.557366e+05 	 1.508188e+39 	 1.015937e+39 	 2.356366e+22 	 2.716716e+07
1.27515641e+01 	 1.132979e-02 	 2.865093e+03 	 3.725000e+02 	 1.323874e+09 	 7.777231e+21 	 2.528650e+05 	 1.505086e+39 	 1.014359e+39 	 2.328586e+22 	 2.691627e+07
1.27648904e+01 	 1.144142e-02 	 2.860848e+03 	 3.680027e+02 	 1.319954e+09 	 7.685426e+21 	 2.500268e+05 	 1.501990e+39 	 1.012784e+39 	 2.301113e+22 	 2.666778e+07
1.27782651e+01 	 1.155409e-02 	 2.856606e+03 	 3.635598e+02 	 1.316042e+09 	 7.594634e+21 	 2.472216e+05 	 1.498899e+39 	 1.011211e+39 	 2.273943e+22 	 2.642165e+07
1.27916883e+01 	 1.166781e-02 	 2.852367e+03 	 3.591705e+02 	 1.312139e+09 	 7.504847e+21 	 2.444489e+05 	 1.495814e+39 	 1.009640e+39 	 2.247074e+22 	 2.617787e+07
1.28051593e+01 	 1.178257e-02 	 2.848131e+03 	 3.548342e+02 	 1.308245e+09 	 7.416057e+21 	 2.417084e+05 	 1.492735e+39 	 1.008072e+39 	 2.220502e+22 	 2.593641e+07
1.28186791e+01 	 1.189840e-02 	 2.843898e+03 	 3.505503e+02 	 1.304359e+09 	 7.328250e+21 	 2.389997e+05 	 1.489661e+39 	 1.006507e+39 	 2.194225e+22 	 2.569724e+07
1.28322480e+01 	 1.201530e-02 	 2.839669e+03 	 3.463180e+02 	 1.300482e+09 	 7.241417e+21 	 2.363225e+05 	 1.486594e+39 	 1.004944e+39 	 2.168239e+22 	 2.546035e+07
1.28458659e+01 	 1.213328e-02 	 2.835442e+03 	 3.421369e+02 	 1.296614e+09 	 7.155548e+21 	 2.336763e+05 	 1.483532e+39 	 1.003384e+39 	 2.142541e+22 	 2.522572e+07
1.28595318e+01 	 1.225236e-02 	 2.831218e+03 	 3.380062e+02 	 1.292754e+09 	 7.070636e+21 	 2.310607e+05 	 1.480475e+39 	 1.001826e+39 	 2.117129e+22 	 2.499331e+07
1.28732467e+01 	 1.237253e-02 	 2.826998e+03 	 3.339255e+02 	 1.288903e+09 	 6.986669e+21 	 2.284754e+05 	 1.477425e+39 	 1.000270e+39 	 2.092000e+22 	 2.476311e+07
1.28870110e+01 	 1.249381e-02 	 2.822781e+03 	 3.298939e+02 	 1.285060e+09 	 6.903638e+21 	 2.259200e+05 	 1.474380e+39 	 9.987175e+38 	 2.067151e+22 	 2.453510e+07
1.29008246e+01 	 1.261620e-02 	 2.818566e+03 	 3.259111e+02 	 1.281226e+09 	 6.821533e+21 	 2.233943e+05 	 1.471341e+39 	 9.971672e+38 	 2.042579e+22 	 2.430925e+07
1.29146869e+01 	 1.273973e-02 	 2.814356e+03 	 3.219763e+02 	 1.277400e+09 	 6.740346e+21 	 2.208977e+05 	 1.468308e+39 	 9.956194e+38 	 2.018281e+22 	 2.408554e+07
1.29285975e+01 	 1.286440e-02 	 2.810148e+03 	 3.180891e+02 	 1.273584e+09 	 6.660069e+21 	 2.184300e+05 	 1.465280e+39 	 9.940742e+38 	 1.994255e+22 	 2.386395e+07
1.29425580e+01 	 1.299021e-02 	 2.805943e+03 	 3.142488e+02 	 1.269775e+09 	 6.580690e+21 	 2.159908e+05 	 1.462259e+39 	 9.925315e+38 	 1.970498e+22 	 2.364447e+07
1.29565681e+01 	 1.311719e-02 	 2.801742e+03 	 3.104548e+02 	 1.265976e+09 	 6.502199e+21 	 2.135798e+05 	 1.459243e+39 	 9.909914e+38 	 1.947007e+22 	 2.342707e+07
1.29706275e+01 	 1.324533e-02 	 2.797544e+03 	 3.067066e+02 	 1.262185e+09 	 6.424590e+21 	 2.111967e+05 	 1.456233e+39 	 9.894539e+38 	 1.923779e+22 	 2.321172e+07
1.29847356e+01 	 1.337465e-02 	 2.793349e+03 	 3.030037e+02 	 1.258403e+09 	 6.347854e+21 	 2.088410e+05 	 1.453229e+39 	 9.879189e+38 	 1.900812e+22 	 2.299841e+07
1.29988932e+01 	 1.350516e-02 	 2.789158e+03 	 2.993456e+02 	 1.254629e+09 	 6.271981e+21 	 2.065126e+05 	 1.450231e+39 	 9.863865e+38 	 1.878103e+22 	 2.278712e+07
1.30131005e+01 	 1.363687e-02 	 2.784970e+03 	 2.957315e+02 	 1.250864e+09 	 6.196962e+21 	 2.042110e+05 	 1.447239e+39 	 9.848566e+38 	 1.855650e+22 	 2.257783e+07
1.30273575e+01 	 1.376978e-02 	 2.780785e+03 	 2.921611e+02 	 1.247108e+09 	 6.122789e+21 	 2.019359e+05 	 1.444252e+39 	 9.833293e+38 	 1.833450e+22 	 2.237052e+07
1.30416642e+01 	 1.390392e-02 	 2.776604e+03 	 2.886338e+02 	 1.243360e+09 	 6.049454e+21 	 1.996870e+05 	 1.441272e+39 	 9.818045e+38 	 1.811500e+22 	 2.216516e+07
1.30560209e+01 	 1.403929e-02 	 2.772426e+03 	 2.851491e+02 	 1.239621e+09 	 5.976946e+21 	 1.974641e+05 	 1.438297e+39 	 9.802823e+38 	 1.789798e+22 	 2.196175e+07
1.30704276e+01 	 1.417590e-02 	 2.768251e+03 	 2.817065e+02 	 1.235891e+09 	 5.905259e+21 	 1.952667e+05 	 1.435328e+39 	 9.787626e+38 	 1.768341e+22 	 2.176025e+07
1.30848840e+01 	 1.431376e-02 	 2.764080e+03 	 2.783054e+02 	 1.232169e+09 	 5.834383e+21 	 1.930947e+05 	 1.432365e+39 	 9.772454e+38 	 1.747127e+22 	 2.156066e+07
1.30993910e+01 	 1.445288e-02 	 2.759912e+03 	 2.749454e+02 	 1.228456e+09 	 5.764311e+21 	 1.909476e+05 	 1.429408e+39 	 9.757309e+38 	 1.726154e+22 	 2.136296e+07
1.31139487e+01 	 1.459328e-02 	 2.755748e+03 	 2.716260e+02 	 1.224752e+09 	 5.695033e+21 	 1.888253e+05 	 1.426457e+39 	 9.742188e+38 	 1.705417e+22 	 2.116711e+07
1.31285571e+01 	 1.473496e-02 	 2.751587e+03 	 2.683466e+02 	 1.221056e+09 	 5.626541e+21 	 1.867274e+05 	 1.423511e+39 	 9.727094e+38 	 1.684916e+22 	 2.097312e+07
1.31432156e+01 	 1.487793e-02 	 2.747430e+03 	 2.651068e+02 	 1.217369e+09 	 5.558828e+21 	 1.846536e+05 	 1.420572e+39 	 9.712024e+38 	 1.664648e+22 	 2.078095e+07
1.31579255e+01 	 1.502221e-02 	 2.743276e+03 	 2.619062e+02 	 1.213691e+09 	 5.491883e+21 	 1.826036e+05 	 1.417638e+39 	 9.696981e+38 	 1.644610e+22 	 2.059060e+07
1.31726868e+01 	 1.516781e-02 	 2.739125e+03 	 2.587441e+02 	 1.210021e+09 	 5.425700e+21 	 1.805772e+05 	 1.414710e+39 	 9.681964e+38 	 1.624800e+22 	 2.040204e+07
1.31874989e+01 	 1.531473e-02 	 2.734978e+03 	 2.556203e+02 	 1.206359e+09 	 5.360272e+21 	 1.785740e+05 	 1.411788e+39 	 9.666973e+38 	 1.605215e+22 	 2.021525e+07
1.32023619e+01 	 1.546300e-02 	 2.730834e+03 	 2.525342e+02 	 1.202707e+09 	 5.295589e+21 	 1.765939e+05 	 1.408872e+39 	 9.652007e+38 	 1.585853e+22 	 2.003023e+07
1.32172768e+01 	 1.561261e-02 	 2.726694e+03 	 2.494853e+02 	 1.199063e+09 	 5.231644e+21 	 1.746364e+05 	 1.405963e+39 	 9.637068e+38 	 1.566712e+22 	 1.984694e+07
1.32322432e+01 	 1.576359e-02 	 2.722558e+03 	 2.464732e+02 	 1.195427e+09 	 5.168430e+21 	 1.727015e+05 	 1.403059e+39 	 9.622154e+38 	 1.547790e+22 	 1.966538e+07
1.32472610e+01 	 1.591594e-02 	 2.718424e+03 	 2.434975e+02 	 1.191801e+09 	 5.105938e+21 	 1.707887e+05 	 1.400160e+39 	 9.607267e+38 	 1.529084e+22 	 1.948553e+07
1.32623300e+01 	 1.606968e-02 	 2.714295e+03 	 2.405578e+02 	 1.188182e+09 	 5.044162e+21 	 1.688978e+05 	 1.397268e+39 	 9.592405e+38 	 1.510592e+22 	 1.930737e+07
1.32774511e+01 	 1.622482e-02 	 2.710169e+03 	 2.376535e+02 	 1.184573e+09 	 4.983093e+21 	 1.670286e+05 	 1.394382e+39 	 9.577570e+38 	 1.492311e+22 	 1.913088e+07
1.32926240e+01 	 1.638136e-02 	 2.706046e+03 	 2.347843e+02 	 1.180972e+09 	 4.922725e+21 	 1.651809e+05 	 1.391502e+39 	 9.562760e+38 	 1.474240e+22 	 1.895605e+07
1.33078486e+01 	 1.653933e-02 	 2.701928e+03 	 2.319497e+02 	 1.177380e+09 	 4.863050e+21 	 1.633542e+05 	 1.388628e+39 	 9.547977e+38 	 1.456376e+22 	 1.878286e+07
1.33231253e+01 	 1.669873e-02 	 2.697812e+03 	 2.291493e+02 	 1.173796e+09 	 4.804060e+21 	 1.615485e+05 	 1.385760e+39 	 9.533219e+38 	 1.438718e+22 	 1.861130e+07
1.33384544e+01 	 1.685958e-02 	 2.693701e+03 	 2.263828e+02 	 1.170221e+09 	 4.745749e+21 	 1.597634e+05 	 1.382897e+39 	 9.518487e+38 	 1.421262e+22 	 1.844135e+07
1.33538358e+01 	 1.702188e-02 	 2.689593e+03 	 2.236497e+02 	 1.166654e+09 	 4.688108e+21 	 1.579988e+05 	 1.380041e+39 	 9.503782e+38 	 1.404007e+22 	 1.827299e+07
1.33692689e+01 	 1.718566e-02 	 2.685488e+03 	 2.209495e+02 	 1.163096e+09 	 4.631133e+21 	 1.562543e+05 	 1.377190e+39 	 9.489102e+38 	 1.386951e+22 	 1.810621e+07
1.33847549e+01 	 1.735092e-02 	 2.681388e+03 	 2.182820e+02 	 1.159547e+09 	 4.574814e+21 	 1.545297e+05 	 1.374346e+39 	 9.474448e+38 	 1.370091e+22 	 1.794099e+07
1.34002938e+01 	 1.751768e-02 	 2.677291e+03 	 2.156466e+02 	 1.156006e+09 	 4.519145e+21 	 1.528248e+05 	 1.371508e+39 	 9.459820e+38 	 1.353426e+22 	 1.777732e+07
1.34158852e+01 	 1.768594e-02 	 2.673197e+03 	 2.130431e+02 	 1.152474e+09 	 4.464119e+21 	 1.511395e+05 	 1.368675e+39 	 9.445218e+38 	 1.336953e+22 	 1.761519e+07
1.34315287e+01 	 1.785573e-02 	 2.669107e+03 	 2.104710e+02 	 1.148950e+09 	 4.409729e+21 	 1.494733e+05 	 1.365849e+39 	 9.430643e+38 	 1.320671e+22 	 1.745457e+07
1.34472256e+01 	 1.802705e-02 	 2.665021e+03 	 2.079300e+02 	 1.145435e+09 	 4.355969e+21 	 1.478261e+05 	 1.363028e+39 	 9.416094e+38 	 1.304577e+22 	 1.729545e+07
1.34629757e+01 	 1.819992e-02 	 2.660939e+03 	 2.054196e+02 	 1.141929e+09 	 4.302831e+21 	 1.461978e+05 	 1.360214e+39 	 9.401571e+38 	 1.288669e+22 	 1.713783e+07
1.34787785e+01 	 1.837435e-02 	 2.656861e+03 	 2.029396e+02 	 1.138431e+09 	 4.250309e+21 	 1.445879e+05 	 1.357405e+39 	 9.387074e+38 	 1.272945e+22 	 1.698167e+07
1.34946336e+01 	 1.855036e-02 	 2.652786e+03 	 2.004895e+02 	 1.134941e+09 	 4.198398e+21 	 1.429965e+05 	 1.354603e+39 	 9.372603e+38 	 1.257404e+22 	 1.682698e+07
1.35105425e+01 	 1.872795e-02 	 2.648715e+03 	 1.980689e+02 	 1.131461e+09 	 4.147089e+21 	 1.414231e+05 	 1.351806e+39 	 9.358159e+38 	 1.242043e+22 	 1.667373e+07
1.35265048e+01 	 1.890715e-02 	 2.644647e+03 	 1.956776e+02 	 1.127988e+09 	 4.096375e+21 	 1.398677e+05 	 1.349016e+39 	 9.343742e+38 	 1.226861e+22 	 1.652192e+07
1.35425206e+01 	 1.908796e-02 	 2.640584e+03 	 1.933152e+02 	 1.124525e+09 	 4.046251e+21 	 1.383299e+05 	 1.346232e+39 	 9.329351e+38 	 1.211854e+22 	 1.637152e+07
1.35585901e+01 	 1.927039e-02 	 2.636524e+03 	 1.909813e+02 	 1.121069e+09 	 3.996711e+21 	 1.368097e+05 	 1.343454e+39 	 9.314987e+38 	 1.197023e+22 	 1.622253e+07
1.35747127e+01 	 1.945447e-02 	 2.632468e+03 	 1.886755e+02 	 1.117623e+09 	 3.947748e+21 	 1.353067e+05 	 1.340682e+39 	 9.300649e+38 	 1.182364e+22 	 1.607492e+07
1.35908886e+01 	 1.964021e-02 	 2.628416e+03 	 1.863976e+02 	 1.114185e+09 	 3.899357e+21 	 1.338208e+05 	 1.337916e+39 	 9.286337e+38 	 1.167876e+22 	 1.592869e+07
