r (km)        	 u (km/s)    	 cs (km/s)   	 rho (g/cm3) 	 T (K)       	 P (dyne/cm2) 	 phi         	 L (erg/s)   	 L* (erg/s)  	 E (erg)     	 tau        
1.20053866e+01 	 6.110804e-03 	 3.134325e+03 	 7.911406e+02 	 1.584372e+09 	 1.596890e+22 	 5.128765e+05 	 1.708543e+39 	 1.116857e+39 	 4.779027e+22 	 4.806695e+07
1.20159117e+01 	 6.173217e-03 	 3.129928e+03 	 7.815893e+02 	 1.579930e+09 	 1.579028e+22 	 5.069790e+05 	 1.705124e+39 	 1.115139e+39 	 4.725611e+22 	 4.761405e+07
1.20264778e+01 	 6.236232e-03 	 3.125533e+03 	 7.721533e+02 	 1.575496e+09 	 1.561348e+22 	 5.011515e+05 	 1.701709e+39 	 1.113423e+39 	 4.672743e+22 	 4.716557e+07
1.20370842e+01 	 6.299856e-03 	 3.121140e+03 	 7.628312e+02 	 1.571070e+09 	 1.543852e+22 	 4.953932e+05 	 1.698298e+39 	 1.111709e+39 	 4.620421e+22 	 4.672146e+07
1.20477321e+01 	 6.364092e-03 	 3.116749e+03 	 7.536216e+02 	 1.566653e+09 	 1.526535e+22 	 4.897031e+05 	 1.694892e+39 	 1.109996e+39 	 4.568635e+22 	 4.628168e+07
1.20584221e+01 	 6.428945e-03 	 3.112360e+03 	 7.445233e+02 	 1.562244e+09 	 1.509396e+22 	 4.840806e+05 	 1.691490e+39 	 1.108286e+39 	 4.517383e+22 	 4.584619e+07
1.20691547e+01 	 6.494421e-03 	 3.107974e+03 	 7.355348e+02 	 1.557843e+09 	 1.492434e+22 	 4.785248e+05 	 1.688092e+39 	 1.106577e+39 	 4.466657e+22 	 4.541496e+07
1.20799313e+01 	 6.560524e-03 	 3.103589e+03 	 7.266548e+02 	 1.553450e+09 	 1.475646e+22 	 4.730349e+05 	 1.684699e+39 	 1.104870e+39 	 4.416450e+22 	 4.498794e+07
1.20907525e+01 	 6.627259e-03 	 3.099205e+03 	 7.178820e+02 	 1.549065e+09 	 1.459029e+22 	 4.676103e+05 	 1.681310e+39 	 1.103166e+39 	 4.366756e+22 	 4.456510e+07
1.21016178e+01 	 6.694631e-03 	 3.094823e+03 	 7.092151e+02 	 1.544688e+09 	 1.442583e+22 	 4.622501e+05 	 1.677926e+39 	 1.101464e+39 	 4.317570e+22 	 4.414639e+07
1.21125276e+01 	 6.762647e-03 	 3.090443e+03 	 7.006528e+02 	 1.540318e+09 	 1.426305e+22 	 4.569534e+05 	 1.674548e+39 	 1.099764e+39 	 4.268887e+22 	 4.373178e+07
1.21234815e+01 	 6.831312e-03 	 3.086064e+03 	 6.921940e+02 	 1.535957e+09 	 1.410194e+22 	 4.517194e+05 	 1.671174e+39 	 1.098066e+39 	 4.220704e+22 	 4.332121e+07
1.21344790e+01 	 6.900633e-03 	 3.081687e+03 	 6.838372e+02 	 1.531603e+09 	 1.394250e+22 	 4.465475e+05 	 1.667805e+39 	 1.096371e+39 	 4.173018e+22 	 4.291465e+07
1.21455194e+01 	 6.970617e-03 	 3.077313e+03 	 6.755814e+02 	 1.527258e+09 	 1.378471e+22 	 4.414367e+05 	 1.664441e+39 	 1.094678e+39 	 4.125827e+22 	 4.251204e+07
1.21566031e+01 	 7.041270e-03 	 3.072940e+03 	 6.674252e+02 	 1.522921e+09 	 1.362856e+22 	 4.363864e+05 	 1.661081e+39 	 1.092987e+39 	 4.079125e+22 	 4.211334e+07
1.21677297e+01 	 7.112598e-03 	 3.068570e+03 	 6.593674e+02 	 1.518592e+09 	 1.347404e+22 	 4.313958e+05 	 1.657726e+39 	 1.091298e+39 	 4.032910e+22 	 4.171853e+07
1.21788996e+01 	 7.184607e-03 	 3.064201e+03 	 6.514070e+02 	 1.514271e+09 	 1.332114e+22 	 4.264642e+05 	 1.654376e+39 	 1.089611e+39 	 3.987177e+22 	 4.132754e+07
1.21901132e+01 	 7.257302e-03 	 3.059835e+03 	 6.435427e+02 	 1.509959e+09 	 1.316983e+22 	 4.215909e+05 	 1.651031e+39 	 1.087926e+39 	 3.941921e+22 	 4.094036e+07
1.22013713e+01 	 7.330689e-03 	 3.055471e+03 	 6.357733e+02 	 1.505655e+09 	 1.302010e+22 	 4.167752e+05 	 1.647690e+39 	 1.086243e+39 	 3.897136e+22 	 4.055693e+07
1.22126732e+01 	 7.404775e-03 	 3.051110e+03 	 6.280977e+02 	 1.501359e+09 	 1.287194e+22 	 4.120164e+05 	 1.644354e+39 	 1.084563e+39 	 3.852819e+22 	 4.017723e+07
1.22240203e+01 	 7.479564e-03 	 3.046750e+03 	 6.205147e+02 	 1.497072e+09 	 1.272532e+22 	 4.073138e+05 	 1.641024e+39 	 1.082885e+39 	 3.808964e+22 	 3.980123e+07
1.22354121e+01 	 7.555063e-03 	 3.042392e+03 	 6.130234e+02 	 1.492792e+09 	 1.258023e+22 	 4.026667e+05 	 1.637698e+39 	 1.081209e+39 	 3.765566e+22 	 3.942887e+07
1.22468482e+01 	 7.631279e-03 	 3.038036e+03 	 6.056224e+02 	 1.488521e+09 	 1.243667e+22 	 3.980745e+05 	 1.634377e+39 	 1.079535e+39 	 3.722623e+22 	 3.906013e+07
1.22583290e+01 	 7.708219e-03 	 3.033682e+03 	 5.983108e+02 	 1.484258e+09 	 1.229461e+22 	 3.935364e+05 	 1.631062e+39 	 1.077864e+39 	 3.680130e+22 	 3.869496e+07
1.22698544e+01 	 7.785889e-03 	 3.029331e+03 	 5.910875e+02 	 1.480003e+09 	 1.215404e+22 	 3.890518e+05 	 1.627751e+39 	 1.076194e+39 	 3.638083e+22 	 3.833333e+07
1.22814243e+01 	 7.864295e-03 	 3.024982e+03 	 5.839514e+02 	 1.475756e+09 	 1.201495e+22 	 3.846200e+05 	 1.624446e+39 	 1.074528e+39 	 3.596478e+22 	 3.797521e+07
1.22930387e+01 	 7.943445e-03 	 3.020635e+03 	 5.769014e+02 	 1.471518e+09 	 1.187733e+22 	 3.802405e+05 	 1.621146e+39 	 1.072863e+39 	 3.555312e+22 	 3.762055e+07
1.23046977e+01 	 8.023345e-03 	 3.016290e+03 	 5.699366e+02 	 1.467288e+09 	 1.174117e+22 	 3.759125e+05 	 1.617851e+39 	 1.071201e+39 	 3.514581e+22 	 3.726932e+07
1.23164011e+01 	 8.104001e-03 	 3.011948e+03 	 5.630558e+02 	 1.463066e+09 	 1.160645e+22 	 3.716355e+05 	 1.614561e+39 	 1.069541e+39 	 3.474281e+22 	 3.692149e+07
1.23281493e+01 	 8.185421e-03 	 3.007608e+03 	 5.562582e+02 	 1.458853e+09 	 1.147316e+22 	 3.674087e+05 	 1.611275e+39 	 1.067883e+39 	 3.434409e+22 	 3.657701e+07
1.23399420e+01 	 8.267612e-03 	 3.003271e+03 	 5.495425e+02 	 1.454649e+09 	 1.134129e+22 	 3.632317e+05 	 1.607995e+39 	 1.066227e+39 	 3.394960e+22 	 3.623587e+07
1.23517801e+01 	 8.350579e-03 	 2.998936e+03 	 5.429080e+02 	 1.450452e+09 	 1.121082e+22 	 3.591038e+05 	 1.604720e+39 	 1.064574e+39 	 3.355930e+22 	 3.589802e+07
1.23636635e+01 	 8.434329e-03 	 2.994603e+03 	 5.363535e+02 	 1.446265e+09 	 1.108174e+22 	 3.550245e+05 	 1.601451e+39 	 1.062923e+39 	 3.317313e+22 	 3.556343e+07
1.23755928e+01 	 8.518868e-03 	 2.990273e+03 	 5.298782e+02 	 1.442085e+09 	 1.095403e+22 	 3.509930e+05 	 1.598186e+39 	 1.061274e+39 	 3.279107e+22 	 3.523207e+07
1.23875675e+01 	 8.604206e-03 	 2.985945e+03 	 5.234811e+02 	 1.437914e+09 	 1.082767e+22 	 3.470090e+05 	 1.594927e+39 	 1.059628e+39 	 3.241306e+22 	 3.490392e+07
1.23995883e+01 	 8.690346e-03 	 2.981620e+03 	 5.171612e+02 	 1.433750e+09 	 1.070266e+22 	 3.430717e+05 	 1.591674e+39 	 1.057984e+39 	 3.203908e+22 	 3.457893e+07
1.24116537e+01 	 8.777300e-03 	 2.977297e+03 	 5.109176e+02 	 1.429596e+09 	 1.057899e+22 	 3.391805e+05 	 1.588425e+39 	 1.056343e+39 	 3.166910e+22 	 3.425707e+07
1.24237652e+01 	 8.865071e-03 	 2.972976e+03 	 5.047493e+02 	 1.425450e+09 	 1.045664e+22 	 3.353351e+05 	 1.585182e+39 	 1.054704e+39 	 3.130307e+22 	 3.393831e+07
1.24359210e+01 	 8.953671e-03 	 2.968658e+03 	 4.986556e+02 	 1.421312e+09 	 1.033562e+22 	 3.315347e+05 	 1.581944e+39 	 1.053067e+39 	 3.094099e+22 	 3.362261e+07
1.24481230e+01 	 9.043104e-03 	 2.964343e+03 	 4.926354e+02 	 1.417183e+09 	 1.021589e+22 	 3.277789e+05 	 1.578712e+39 	 1.051432e+39 	 3.058279e+22 	 3.330995e+07
1.24603715e+01 	 9.133376e-03 	 2.960031e+03 	 4.866879e+02 	 1.413063e+09 	 1.009745e+22 	 3.240671e+05 	 1.575484e+39 	 1.049800e+39 	 3.022845e+22 	 3.300030e+07
1.24726670e+01 	 9.224494e-03 	 2.955721e+03 	 4.808122e+02 	 1.408951e+09 	 9.980286e+21 	 3.203988e+05 	 1.572262e+39 	 1.048170e+39 	 2.987790e+22 	 3.269363e+07
1.24850137e+01 	 9.316460e-03 	 2.951412e+03 	 4.750074e+02 	 1.404846e+09 	 9.864359e+21 	 3.167737e+05 	 1.569045e+39 	 1.046543e+39 	 2.953106e+22 	 3.238994e+07
1.24974005e+01 	 9.409298e-03 	 2.947108e+03 	 4.692727e+02 	 1.400752e+09 	 9.749710e+21 	 3.131908e+05 	 1.565834e+39 	 1.044918e+39 	 2.918804e+22 	 3.208913e+07
1.25098365e+01 	 9.503002e-03 	 2.942805e+03 	 4.636072e+02 	 1.396665e+09 	 9.636285e+21 	 3.096500e+05 	 1.562628e+39 	 1.043295e+39 	 2.884868e+22 	 3.179123e+07
1.25223196e+01 	 9.597583e-03 	 2.938505e+03 	 4.580102e+02 	 1.392586e+09 	 9.524082e+21 	 3.061505e+05 	 1.559427e+39 	 1.041675e+39 	 2.851297e+22 	 3.149619e+07
1.25348466e+01 	 9.693055e-03 	 2.934208e+03 	 4.524807e+02 	 1.388516e+09 	 9.413105e+21 	 3.026919e+05 	 1.556232e+39 	 1.040057e+39 	 2.818093e+22 	 3.120397e+07
1.25474198e+01 	 9.789420e-03 	 2.929914e+03 	 4.470180e+02 	 1.384455e+09 	 9.303333e+21 	 2.992737e+05 	 1.553043e+39 	 1.038442e+39 	 2.785248e+22 	 3.091455e+07
1.25600382e+01 	 9.886689e-03 	 2.925623e+03 	 4.416212e+02 	 1.380403e+09 	 9.194763e+21 	 2.958954e+05 	 1.549858e+39 	 1.036828e+39 	 2.752763e+22 	 3.062790e+07
1.25726988e+01 	 9.984877e-03 	 2.921336e+03 	 4.362896e+02 	 1.376361e+09 	 9.087405e+21 	 2.925564e+05 	 1.546678e+39 	 1.035216e+39 	 2.720641e+22 	 3.034397e+07
1.25854117e+01 	 1.008397e-02 	 2.917051e+03 	 4.310223e+02 	 1.372326e+09 	 8.981193e+21 	 2.892566e+05 	 1.543503e+39 	 1.033607e+39 	 2.688861e+22 	 3.006278e+07
1.25981776e+01 	 1.018398e-02 	 2.912768e+03 	 4.258186e+02 	 1.368299e+09 	 8.876107e+21 	 2.859955e+05 	 1.540335e+39 	 1.032001e+39 	 2.657417e+22 	 2.978431e+07
1.26109937e+01 	 1.028492e-02 	 2.908487e+03 	 4.206778e+02 	 1.364279e+09 	 8.772151e+21 	 2.827725e+05 	 1.537173e+39 	 1.030398e+39 	 2.626311e+22 	 2.950853e+07
1.26238568e+01 	 1.038680e-02 	 2.904208e+03 	 4.155990e+02 	 1.360268e+09 	 8.669322e+21 	 2.795871e+05 	 1.534018e+39 	 1.028798e+39 	 2.595543e+22 	 2.923539e+07
1.26367654e+01 	 1.048963e-02 	 2.899932e+03 	 4.105815e+02 	 1.356265e+09 	 8.567618e+21 	 2.764387e+05 	 1.530868e+39 	 1.027201e+39 	 2.565110e+22 	 2.896485e+07
1.26497202e+01 	 1.059342e-02 	 2.895659e+03 	 4.056247e+02 	 1.352271e+09 	 8.467029e+21 	 2.733269e+05 	 1.527724e+39 	 1.025606e+39 	 2.535011e+22 	 2.869690e+07
1.26627182e+01 	 1.069818e-02 	 2.891389e+03 	 4.007276e+02 	 1.348286e+09 	 8.367558e+21 	 2.702513e+05 	 1.524586e+39 	 1.024014e+39 	 2.505246e+22 	 2.843149e+07
1.26757606e+01 	 1.080393e-02 	 2.887123e+03 	 3.958897e+02 	 1.344311e+09 	 8.269190e+21 	 2.672113e+05 	 1.521452e+39 	 1.022423e+39 	 2.475811e+22 	 2.816860e+07
1.26888487e+01 	 1.091066e-02 	 2.882860e+03 	 3.911102e+02 	 1.340344e+09 	 8.171910e+21 	 2.642067e+05 	 1.518324e+39 	 1.020835e+39 	 2.446701e+22 	 2.790822e+07
1.27019832e+01 	 1.101839e-02 	 2.878601e+03 	 3.863884e+02 	 1.336386e+09 	 8.075709e+21 	 2.612370e+05 	 1.515201e+39 	 1.019248e+39 	 2.417914e+22 	 2.765031e+07
1.27151651e+01 	 1.112712e-02 	 2.874344e+03 	 3.817235e+02 	 1.332437e+09 	 7.980571e+21 	 2.583018e+05 	 1.512084e+39 	 1.017664e+39 	 2.389444e+22 	 2.739486e+07
1.27283941e+01 	 1.123686e-02 	 2.870091e+03 	 3.771151e+02 	 1.328496e+09 	 7.886486e+21 	 2.554008e+05 	 1.508972e+39 	 1.016083e+39 	 2.361289e+22 	 2.714184e+07
1.27416730e+01 	 1.134762e-02 	 2.865840e+03 	 3.725622e+02 	 1.324565e+09 	 7.793434e+21 	 2.525335e+05 	 1.505865e+39 	 1.014504e+39 	 2.333444e+22 	 2.689124e+07
1.27550013e+01 	 1.145940e-02 	 2.861593e+03 	 3.680643e+02 	 1.320641e+09 	 7.701405e+21 	 2.496996e+05 	 1.502765e+39 	 1.012927e+39 	 2.305904e+22 	 2.664303e+07
1.27683782e+01 	 1.157221e-02 	 2.857348e+03 	 3.636207e+02 	 1.316726e+09 	 7.610393e+21 	 2.468986e+05 	 1.499670e+39 	 1.011353e+39 	 2.278668e+22 	 2.639719e+07
1.27818046e+01 	 1.168607e-02 	 2.853106e+03 	 3.592308e+02 	 1.312820e+09 	 7.520383e+21 	 2.441301e+05 	 1.496581e+39 	 1.009782e+39 	 2.251732e+22 	 2.615370e+07
1.27952802e+01 	 1.180098e-02 	 2.848867e+03 	 3.548939e+02 	 1.308921e+09 	 7.431366e+21 	 2.413938e+05 	 1.493498e+39 	 1.008213e+39 	 2.225092e+22 	 2.591252e+07
1.28088045e+01 	 1.191696e-02 	 2.844631e+03 	 3.506093e+02 	 1.305032e+09 	 7.343335e+21 	 2.386892e+05 	 1.490421e+39 	 1.006647e+39 	 2.198748e+22 	 2.567364e+07
1.28223771e+01 	 1.203400e-02 	 2.840398e+03 	 3.463764e+02 	 1.301151e+09 	 7.256281e+21 	 2.360159e+05 	 1.487350e+39 	 1.005084e+39 	 2.172695e+22 	 2.543703e+07
1.28359977e+01 	 1.215213e-02 	 2.836169e+03 	 3.421947e+02 	 1.297278e+09 	 7.170196e+21 	 2.333736e+05 	 1.484284e+39 	 1.003523e+39 	 2.146933e+22 	 2.520267e+07
1.28496664e+01 	 1.227135e-02 	 2.831942e+03 	 3.380634e+02 	 1.293415e+09 	 7.085071e+21 	 2.307619e+05 	 1.481225e+39 	 1.001965e+39 	 2.121457e+22 	 2.497054e+07
1.28633836e+01 	 1.239168e-02 	 2.827719e+03 	 3.339820e+02 	 1.289560e+09 	 7.000896e+21 	 2.281805e+05 	 1.478171e+39 	 1.000409e+39 	 2.096266e+22 	 2.474060e+07
1.28771490e+01 	 1.251311e-02 	 2.823499e+03 	 3.299499e+02 	 1.285714e+09 	 6.917663e+21 	 2.256289e+05 	 1.475122e+39 	 9.988558e+38 	 2.071356e+22 	 2.451285e+07
1.28909630e+01 	 1.263567e-02 	 2.819282e+03 	 3.259665e+02 	 1.281876e+09 	 6.835361e+21 	 2.231068e+05 	 1.472080e+39 	 9.973048e+38 	 2.046725e+22 	 2.428725e+07
1.29048255e+01 	 1.275935e-02 	 2.815068e+03 	 3.220311e+02 	 1.278047e+09 	 6.753982e+21 	 2.206139e+05 	 1.469043e+39 	 9.957563e+38 	 2.022369e+22 	 2.406380e+07
1.29187375e+01 	 1.288418e-02 	 2.810858e+03 	 3.181433e+02 	 1.274227e+09 	 6.673514e+21 	 2.181498e+05 	 1.466011e+39 	 9.942103e+38 	 1.998286e+22 	 2.384246e+07
1.29326996e+01 	 1.301015e-02 	 2.806651e+03 	 3.143024e+02 	 1.270416e+09 	 6.593947e+21 	 2.157142e+05 	 1.462986e+39 	 9.926667e+38 	 1.974473e+22 	 2.362322e+07
1.29467117e+01 	 1.313728e-02 	 2.802447e+03 	 3.105079e+02 	 1.266613e+09 	 6.515272e+21 	 2.133068e+05 	 1.459966e+39 	 9.911257e+38 	 1.950926e+22 	 2.340606e+07
1.29607722e+01 	 1.326559e-02 	 2.798247e+03 	 3.067592e+02 	 1.262819e+09 	 6.437483e+21 	 2.109271e+05 	 1.456952e+39 	 9.895872e+38 	 1.927644e+22 	 2.319095e+07
1.29748838e+01 	 1.339506e-02 	 2.794050e+03 	 3.030557e+02 	 1.259034e+09 	 6.360565e+21 	 2.085750e+05 	 1.453944e+39 	 9.880512e+38 	 1.904623e+22 	 2.297789e+07
1.29890464e+01 	 1.352573e-02 	 2.789856e+03 	 2.993970e+02 	 1.255257e+09 	 6.284510e+21 	 2.062500e+05 	 1.450942e+39 	 9.865180e+38 	 1.881860e+22 	 2.276684e+07
1.30032593e+01 	 1.365759e-02 	 2.785665e+03 	 2.957824e+02 	 1.251488e+09 	 6.209310e+21 	 2.039519e+05 	 1.447945e+39 	 9.849873e+38 	 1.859352e+22 	 2.255779e+07
1.30175200e+01 	 1.379067e-02 	 2.781477e+03 	 2.922114e+02 	 1.247729e+09 	 6.134961e+21 	 2.016802e+05 	 1.444955e+39 	 9.834592e+38 	 1.837099e+22 	 2.235072e+07
1.30318318e+01 	 1.392497e-02 	 2.777293e+03 	 2.886836e+02 	 1.243978e+09 	 6.061449e+21 	 1.994347e+05 	 1.441970e+39 	 9.819336e+38 	 1.815097e+22 	 2.214560e+07
1.30461941e+01 	 1.406049e-02 	 2.773112e+03 	 2.851984e+02 	 1.240235e+09 	 5.988767e+21 	 1.972151e+05 	 1.438992e+39 	 9.804107e+38 	 1.793342e+22 	 2.194242e+07
1.30606062e+01 	 1.419726e-02 	 2.768935e+03 	 2.817552e+02 	 1.236501e+09 	 5.916907e+21 	 1.950211e+05 	 1.436019e+39 	 9.788904e+38 	 1.771834e+22 	 2.174116e+07
1.30750667e+01 	 1.433529e-02 	 2.764761e+03 	 2.783536e+02 	 1.232776e+09 	 5.845864e+21 	 1.928522e+05 	 1.433052e+39 	 9.773725e+38 	 1.750570e+22 	 2.154179e+07
1.30895770e+01 	 1.447458e-02 	 2.760591e+03 	 2.749931e+02 	 1.229060e+09 	 5.775627e+21 	 1.907083e+05 	 1.430091e+39 	 9.758572e+38 	 1.729546e+22 	 2.134431e+07
1.31041375e+01 	 1.461514e-02 	 2.756424e+03 	 2.716732e+02 	 1.225353e+09 	 5.706186e+21 	 1.885891e+05 	 1.427137e+39 	 9.743445e+38 	 1.708761e+22 	 2.114868e+07
1.31187481e+01 	 1.475699e-02 	 2.752260e+03 	 2.683933e+02 	 1.221654e+09 	 5.637535e+21 	 1.864942e+05 	 1.424188e+39 	 9.728344e+38 	 1.688212e+22 	 2.095490e+07
1.31334098e+01 	 1.490014e-02 	 2.748100e+03 	 2.651530e+02 	 1.217963e+09 	 5.569662e+21 	 1.844234e+05 	 1.421245e+39 	 9.713270e+38 	 1.667896e+22 	 2.076295e+07
1.31481226e+01 	 1.504459e-02 	 2.743943e+03 	 2.619519e+02 	 1.214281e+09 	 5.502560e+21 	 1.823764e+05 	 1.418308e+39 	 9.698222e+38 	 1.647811e+22 	 2.057281e+07
1.31628855e+01 	 1.519036e-02 	 2.739790e+03 	 2.587894e+02 	 1.210608e+09 	 5.436224e+21 	 1.803529e+05 	 1.415377e+39 	 9.683200e+38 	 1.627955e+22 	 2.038446e+07
1.31776992e+01 	 1.533746e-02 	 2.735640e+03 	 2.556650e+02 	 1.206944e+09 	 5.370644e+21 	 1.783526e+05 	 1.412452e+39 	 9.668204e+38 	 1.608325e+22 	 2.019787e+07
1.31925642e+01 	 1.548591e-02 	 2.731494e+03 	 2.525784e+02 	 1.203288e+09 	 5.305811e+21 	 1.763753e+05 	 1.409533e+39 	 9.653233e+38 	 1.588918e+22 	 2.001305e+07
1.32074792e+01 	 1.563570e-02 	 2.727352e+03 	 2.495291e+02 	 1.199641e+09 	 5.241721e+21 	 1.744206e+05 	 1.406619e+39 	 9.638288e+38 	 1.569734e+22 	 1.982996e+07
1.32224460e+01 	 1.578686e-02 	 2.723213e+03 	 2.465166e+02 	 1.196003e+09 	 5.178363e+21 	 1.724884e+05 	 1.403712e+39 	 9.623370e+38 	 1.550768e+22 	 1.964860e+07
1.32374643e+01 	 1.593940e-02 	 2.719077e+03 	 2.435404e+02 	 1.192373e+09 	 5.115730e+21 	 1.705783e+05 	 1.400811e+39 	 9.608477e+38 	 1.532019e+22 	 1.946894e+07
1.32525330e+01 	 1.609333e-02 	 2.714945e+03 	 2.406002e+02 	 1.188752e+09 	 5.053816e+21 	 1.686901e+05 	 1.397916e+39 	 9.593609e+38 	 1.513486e+22 	 1.929096e+07
1.32676536e+01 	 1.624865e-02 	 2.710817e+03 	 2.376955e+02 	 1.185139e+09 	 4.992611e+21 	 1.668235e+05 	 1.395026e+39 	 9.578768e+38 	 1.495165e+22 	 1.911466e+07
1.32828272e+01 	 1.640539e-02 	 2.706692e+03 	 2.348258e+02 	 1.181535e+09 	 4.932106e+21 	 1.649783e+05 	 1.392143e+39 	 9.563953e+38 	 1.477053e+22 	 1.894002e+07
1.32980514e+01 	 1.656355e-02 	 2.702571e+03 	 2.319908e+02 	 1.177940e+09 	 4.872299e+21 	 1.631542e+05 	 1.389265e+39 	 9.549163e+38 	 1.459149e+22 	 1.876701e+07
1.33133274e+01 	 1.672314e-02 	 2.698453e+03 	 2.291900e+02 	 1.174354e+09 	 4.813180e+21 	 1.613510e+05 	 1.386394e+39 	 9.534399e+38 	 1.441452e+22 	 1.859563e+07
1.33286571e+01 	 1.688418e-02 	 2.694339e+03 	 2.264230e+02 	 1.170776e+09 	 4.754738e+21 	 1.595684e+05 	 1.383528e+39 	 9.519662e+38 	 1.423957e+22 	 1.842585e+07
1.33440386e+01 	 1.704668e-02 	 2.690229e+03 	 2.236894e+02 	 1.167206e+09 	 4.696970e+21 	 1.578062e+05 	 1.380669e+39 	 9.504950e+38 	 1.406664e+22 	 1.825767e+07
1.33594725e+01 	 1.721066e-02 	 2.686122e+03 	 2.209889e+02 	 1.163646e+09 	 4.639869e+21 	 1.560642e+05 	 1.377815e+39 	 9.490264e+38 	 1.389570e+22 	 1.809107e+07
1.33749589e+01 	 1.737611e-02 	 2.682019e+03 	 2.183209e+02 	 1.160093e+09 	 4.583426e+21 	 1.543420e+05 	 1.374967e+39 	 9.475604e+38 	 1.372673e+22 	 1.792602e+07
1.33904983e+01 	 1.754307e-02 	 2.677920e+03 	 2.156852e+02 	 1.156550e+09 	 4.527634e+21 	 1.526395e+05 	 1.372126e+39 	 9.460971e+38 	 1.355971e+22 	 1.776253e+07
1.34060911e+01 	 1.771153e-02 	 2.673824e+03 	 2.130812e+02 	 1.153015e+09 	 4.472485e+21 	 1.509565e+05 	 1.369290e+39 	 9.446364e+38 	 1.339462e+22 	 1.760056e+07
1.34217360e+01 	 1.788152e-02 	 2.669732e+03 	 2.105087e+02 	 1.149488e+09 	 4.417976e+21 	 1.492927e+05 	 1.366461e+39 	 9.431783e+38 	 1.323143e+22 	 1.744011e+07
1.34374344e+01 	 1.805304e-02 	 2.665644e+03 	 2.079673e+02 	 1.145970e+09 	 4.364097e+21 	 1.476478e+05 	 1.363637e+39 	 9.417229e+38 	 1.307013e+22 	 1.728116e+07
1.34531853e+01 	 1.822611e-02 	 2.661559e+03 	 2.054565e+02 	 1.142461e+09 	 4.310842e+21 	 1.460217e+05 	 1.360820e+39 	 9.402700e+38 	 1.291071e+22 	 1.712370e+07
1.34689893e+01 	 1.840074e-02 	 2.657478e+03 	 2.029761e+02 	 1.138960e+09 	 4.258206e+21 	 1.444141e+05 	 1.358008e+39 	 9.388197e+38 	 1.275313e+22 	 1.696771e+07
1.34848470e+01 	 1.857695e-02 	 2.653401e+03 	 2.005256e+02 	 1.135468e+09 	 4.206180e+21 	 1.428249e+05 	 1.355202e+39 	 9.373721e+38 	 1.259737e+22 	 1.681318e+07
1.35007578e+01 	 1.875474e-02 	 2.649328e+03 	 1.981047e+02 	 1.131985e+09 	 4.154758e+21 	 1.412537e+05 	 1.352403e+39 	 9.359271e+38 	 1.244343e+22 	 1.666009e+07
1.35167229e+01 	 1.893414e-02 	 2.645258e+03 	 1.957130e+02 	 1.128509e+09 	 4.103933e+21 	 1.397005e+05 	 1.349609e+39 	 9.344849e+38 	 1.229127e+22 	 1.650844e+07
1.35327406e+01 	 1.911516e-02 	 2.641192e+03 	 1.933502e+02 	 1.125043e+09 	 4.053701e+21 	 1.381649e+05 	 1.346822e+39 	 9.330451e+38 	 1.214088e+22 	 1.635820e+07
1.35488117e+01 	 1.929780e-02 	 2.637130e+03 	 1.910159e+02 	 1.121585e+09 	 4.004054e+21 	 1.366468e+05 	 1.344041e+39 	 9.316080e+38 	 1.199224e+22 	 1.620936e+07
1.35649363e+01 	 1.948209e-02 	 2.633072e+03 	 1.887098e+02 	 1.118136e+09 	 3.954986e+21 	 1.351459e+05 	 1.341265e+39 	 9.301736e+38 	 1.184534e+22 	 1.606191e+07
1.35811148e+01 	 1.966804e-02 	 2.629017e+03 	 1.864315e+02 	 1.114695e+09 	 3.906491e+21 	 1.336621e+05 	 1.338496e+39 	 9.287417e+38 	 1.170015e+22 	 1.591583e+07
